Oxysoft export of:	C:\Users\NIRS\Desktop\colm1222
Export date:	2016/11/23 17:17:46
Start of measurement:	2016-11-23 17:13:14.284

Datafile sample rate:	10.00	Hz
Datafile duration:	228.00	s
Datafile total number of samples:	2280

Description:	

Optode-template:	3 x 1 channel (split) I
Optode distance (mm):	 10.00	10.00	10.00
Optode gradients (mm):	 -	-	-
DPF:	4.00	4.00	4.00

Device id:	10221
# Receivers:	2
# Light sources:	8
# ADC:	0

Light source wavelengths:
device	index	wavelength
1	1	847	nm
1	2	762	nm
1	3	847	nm
1	4	761	nm
1	5	847	nm
1	6	761	nm
1	7	847	nm
1	8	761	nm

Export sample rate:	10.00	Hz
No time span selected, exporting full time span



Legend:
Column	Trace (Measurement)
1	(Sample number)
2	Rx1 - Tx1 O2Hb (colm1222)
3	Rx1 - Tx1 HHb (colm1222)
4	Rx2a - Tx2 O2Hb (colm1222)
5	Rx2a - Tx2 HHb (colm1222)
6	Rx2b - Tx3 O2Hb (colm1222)
7	Rx2b - Tx3 HHb (colm1222)
8	(Event)


1	2	3	4	5	6	7	8
     0	130.2228	54.4122	30.8099	-6.6164	-53.3936	-6.3348	 
     1	130.2228	54.4122	25.7857	 0.7114	-52.8170	-6.0604	 
     2	130.2228	54.4122	29.7353	-0.7470	-51.5347	-5.8592	 
     3	130.2228	54.4122	29.8464	-5.2110	-51.0527	-5.2875	 
     4	130.2228	54.4122	31.8212	-5.9403	-48.6732	-4.2170	 
     5	130.2228	54.4122	22.9416	 0.6371	-48.4064	-4.1281	 
     6	130.2228	54.4122	32.7847	-7.3456	-49.4004	-4.5108	 
     7	130.2228	54.4122	26.8736	-3.0263	-48.9486	-4.4527	 
     8	130.2228	54.4122	29.8464	-5.2110	-47.8384	-4.0005	 
     9	130.2228	54.4122	24.1668	-5.2129	-48.4838	-4.1745	 
    10	130.2228	54.4122	29.8464	-5.2110	-49.2110	-4.4682	 
    11	130.2228	54.4122	27.8716	-4.4818	-49.8651	-4.7890	 
    12	130.2228	54.4122	26.9334	-5.1850	-49.7833	-4.6692	 
    13	130.2228	54.4122	29.8464	-5.2110	-48.8927	-4.7732	 
    14	130.2228	54.4122	26.8736	-3.0263	-49.4349	-5.0978	 
    15	130.2228	54.4122	30.8099	-6.6164	-49.1638	-4.9355	 
    16	130.2228	54.4122	23.0703	-1.6219	-48.7421	-4.7538	 
    17	130.2228	54.4122	23.9740	-0.8686	-49.3875	-4.9278	 
    18	130.2228	54.4122	27.8716	-4.4818	-50.1664	-5.4649	 
    19	130.2228	54.4122	25.9699	-3.7796	-50.6183	-6.1601	 
    20	130.2228	54.4122	24.8433	-0.0651	-51.3843	-6.4770	 
    21	130.2228	54.4122	32.7980	-5.2139	-51.8705	-6.4849	 
    22	130.2228	54.4122	26.8736	-3.0263	-50.8850	-5.6118	 
    23	130.2228	54.4122	28.8484	-3.7555	-48.8368	-5.0937	 
    24	130.2228	54.4122	24.0682	-3.0774	-48.8927	-4.7732	 
    25	130.2228	54.4122	27.8505	-2.3000	-47.2445	-3.4327	 
    26	130.2228	54.4122	25.9699	-3.7796	-46.2203	-2.5364	 
    27	130.2228	54.4122	21.2418	-0.9467	-46.2848	-2.3627	 
    28	130.2228	54.4122	24.1966	-7.2480	-45.5834	-1.8720	 
    29	130.2228	54.4122	24.1966	-7.2480	-43.3543	-0.1837	 
    30	130.2228	54.4122	17.9282	-3.9213	-42.7604	 0.3841	 
    31	130.2228	54.4122	20.6811	-7.9365	-42.8206	 0.6313	 
    32	130.2228	54.4122	22.3680	-6.5728	-40.9230	 1.1300	 
    33	130.2228	54.4122	22.3383	-4.5377	-45.4890	-3.4437	 
    34	130.2228	54.4122	32.8156	-3.0089	-50.9544	-8.6973	 
    35	130.2228	54.4122	30.5965	 2.4585	-51.1610	-9.0334	 
    36	130.2228	54.4122	36.9846	-4.5484	-49.9948	-8.2645	 
    37	130.2228	54.4122	32.7980	-5.2139	-47.0127	-6.4794	 
    38	130.2228	54.4122	28.7929	-1.5235	-44.5728	-5.0189	 
    39	130.2228	54.4122	22.0723	-0.1664	-42.9592	-4.2654	 
    40	130.2228	54.4122	23.0703	-1.6219	-41.4144	-3.4114	 
    41	130.2228	54.4122	21.3748	-3.1324	-39.5855	-2.1751	 
    42	130.2228	54.4122	25.9953	-5.8881	-37.4426	-1.3171	 
    43	130.2228	54.4122	17.7909	-1.8090	-36.8186	-0.8728	 
    44	130.2228	54.4122	25.0959	-6.5680	-34.4907	-0.0457	 
    45	130.2228	54.4122	18.0310	-5.9834	-32.6834	 0.8238	 
    46	130.2228	54.4122	20.6127	-5.9246	-32.2144	 1.1754	 
    47	130.2228	54.4122	21.5418	-7.2798	-31.5216	 1.5193	 
    48	130.2228	54.4122	20.6808	-9.8481	-27.4812	 2.2389	 
    49	130.2228	54.4122	15.5613	-6.0460	-25.1275	 2.8691	 
    50	130.2228	54.4122	16.3488	-5.3622	-24.1121	 2.9814	 
    51	130.2228	54.4122	18.1382	-7.9721	-20.4288	 3.9828	 
    52	130.2228	54.4122	12.2699	-4.8306	-17.5803	 4.7677	 
    53	130.2228	54.4122	21.5758	-9.2415	-18.2300	 4.5203	 
    54	130.2228	54.4122	21.5418	-7.2798	-18.7420	 4.7094	 
    55	130.2228	54.4122	22.4362	-10.4962	-17.6017	 5.0380	 
    56	130.2228	54.4122	17.3163	-8.6057	-18.7420	 4.7094	 
    57	130.2228	54.4122	13.7374	-3.3859	-18.7033	 4.7325	 
    58	130.2228	54.4122	18.9985	-9.2269	-18.8711	 4.4197	 
    59	130.2228	54.4122	14.4905	-2.6519	-20.5966	 3.6700	 
    60	130.2228	54.4122	12.0552	-2.7647	-22.2404	 3.0400	 
    61	130.2228	54.4122	14.7738	-6.7298	-19.6630	 3.6625	 
    62	130.2228	54.4122	14.6666	-4.7410	-19.0133	 3.2727	 
    63	130.2228	54.4122	17.1019	-4.6282	-21.8447	 2.1442	 
    64	130.2228	54.4122	19.7864	-6.6316	-23.1527	 2.1399	 
    65	130.2228	54.4122	10.9156	 0.7297	-23.4410	 2.3213	 
    66	130.2228	54.4122	16.0355	-1.1608	-24.2757	 2.1048	 
    67	130.2228	54.4122	21.4389	-5.2177	-24.7706	 1.9501	 
    68	130.2228	54.4122	18.7544	-3.2143	-24.5081	 1.9657	 
    69	130.2228	54.4122	11.1261	-1.4096	-23.3162	 2.5376	 
    70	-94.8585	138.9094	17.9282	-3.9213	-22.4254	 3.0708	 
    71	-94.8585	138.9094	16.1728	-3.2731	-20.3771	 4.2261	 
    72	-93.0196	138.2191	20.6127	-5.9246	-20.1878	 4.2686	 
    73	-93.3874	138.3572	17.9282	-3.9213	-21.2119	 4.0096	 
    74	-93.3874	138.3572	20.5098	-3.8625	-20.2824	 4.5660	 
    75	-93.5345	138.4124	20.6127	-5.9246	-19.4433	 4.8559	 
    76	-94.0494	138.6057	16.3488	-5.3622	-19.7531	 4.6704	 
    77	-94.5643	138.7990	26.0251	-7.9232	-19.7919	 4.6472	 
    78	-94.9321	138.9370	13.3166	 0.8927	-19.4046	 4.8790	 
    79	-95.2999	139.0751	12.8083	-2.0307	-18.9571	 4.8637	 
    80	-94.6379	138.8266	19.5462	-2.4572	-17.8942	 5.7832	 
    81	-94.1965	138.6609	20.2438	 0.5088	-16.9819	 6.0461	 
    82	-94.5643	138.7990	23.0703	-1.6219	-17.4467	 5.7679	 
    83	-94.7114	138.8542	23.2674	-5.8929	-17.1024	 5.9031	 
    84	-94.6379	138.8266	25.0318	-4.4828	-16.7496	 6.1852	 
    85	-95.0056	138.9646	23.2033	-3.8076	-17.2530	 5.8838	 
    86	-95.4470	139.1303	14.0740	 1.7000	-17.7866	 5.7060	 
    87	-95.6676	139.2132	14.0740	 1.7000	-17.5586	 5.7717	 
    88	-95.8883	139.2960	21.3748	-3.1324	-17.7048	 5.8257	 
    89	-95.4470	139.1303	24.0682	-3.0774	-16.9560	 6.4863	 
    90	-95.0056	138.9646	17.3829	 2.6897	-16.0739	 6.8728	 
    91	-95.4470	139.1303	17.3829	 2.6897	-16.3881	 6.6139	 
    92	-95.6676	139.2132	19.4133	-0.2715	-15.9707	 6.7222	 
    93	-95.6676	139.2132	18.7544	-3.2143	-15.5834	 6.9540	 
    94	40.9636	-60.4629	14.8314	 2.5074	-16.1944	 6.7298	 
    95	40.5958	-60.3249	18.4153	 1.1840	-16.7624	 6.6022	 
    96	-0.7629	-0.2419	18.5827	-1.0518	-16.8786	 6.5327	 
    97	-0.8055	-0.3391	18.4153	 1.1840	-16.9517	 6.5597	 
    98	-0.3525	-0.2828	22.2397	-2.4022	-16.1685	 7.1701	 
    99	-0.0118	-0.2220	19.2115	 2.0145	-15.2563	 7.4330	 
   100	-0.3873	-0.2320	17.7909	-1.8090	-16.4310	 7.1545	 
   101	-0.4996	-0.2275	19.4133	-0.2715	-16.2330	 7.3438	 
   102	-0.4261	-0.2552	24.9720	-2.3241	-15.6564	 7.6182	 
   103	-0.7242	-0.2187	24.9720	-2.3241	-16.0437	 7.3864	 
   104	-0.9139	-0.2607	14.8314	 2.5074	-16.1255	 7.2666	 
   105	-1.0649	-0.2794	21.2418	-0.9467	-15.8587	 7.3555	 
   106	-1.1772	-0.2750	17.5847	 0.4037	-15.8630	 7.2822	 
   107	-0.5345	-0.1767	21.0400	 1.3393	-14.3956	 8.0897	 
   108	-0.3447	-0.1348	18.4153	 1.1840	-13.3071	 8.1751	 
   109	-0.5345	-0.1767	22.0723	-0.1664	-13.8062	 7.9471	 
   110	-0.6080	-0.1491	23.9740	-0.8686	-13.4921	 8.2059	 
   111	-0.6428	-0.0983	21.2418	-0.9467	-13.1521	 8.2678	 
   112	-0.8326	-0.1403	14.5221	 4.8706	-13.7675	 7.9702	 
   113	-1.0610	-0.2054	22.0723	-0.1664	-13.7718	 7.8969	 
   114	-1.2120	-0.2242	19.2115	 2.0145	-13.3200	 7.9549	 
   115	-1.2120	-0.2242	23.8109	 1.4406	-13.1220	 8.1442	 
   116	-0.6777	-0.0475	22.9416	 0.6371	-10.8845	 8.7049	 
   117	-0.7164	-0.0707	15.5544	 3.3649	-10.9061	 8.3380	 
   118	-0.8674	-0.0895	22.9416	 0.6371	-10.9922	 8.1449	 
   119	-0.7125	 0.0033	21.9093	 2.1428	-10.4974	 8.2995	 
   120	-0.7861	 0.0309	21.0400	 1.3393	-11.0138	 7.7781	 
   121	-1.0493	 0.0166	20.0076	 2.8450	-11.4011	 7.5462	 
   122	-1.2391	-0.0254	17.1123	 5.0761	-11.5043	 7.6968	 
   123	-1.2391	-0.0254	22.2397	-2.4022	-10.8115	 8.0407	 
   124	-0.8596	 0.0585	22.0723	-0.1664	-9.3958	 8.6050	 
   125	-1.1616	 0.0210	22.9416	 0.6371	-9.6196	 8.6126	 
   126	-1.5798	-0.0861	21.0400	 1.3393	-9.5507	 8.5122	 
   127	-1.5450	-0.1369	22.2397	-2.4022	-7.3003	 9.2930	 
   128	-1.7308	-0.1049	20.2438	 0.5088	-6.7366	 9.3473	 
   129	-1.9205	-0.1469	20.2438	 0.5088	-7.1153	 9.2622	 
   130	-1.9980	-0.1932	20.2438	 0.5088	-6.8141	 9.3009	 
   131	-1.6921	-0.0817	17.3829	 2.6897	-6.0266	 9.9847	 
   132	-0.8596	 0.0585	17.8741	 5.9569	-4.4861	10.7653	 
   133	-1.1965	 0.0718	18.4153	 1.1840	-5.2133	10.4715	 
   134	-1.2778	-0.0486	17.1123	 5.0761	-4.5206	10.1783	 
   135	-1.1616	 0.0210	21.2418	-0.9467	-2.8382	10.1943	 
   136	-1.2004	-0.0022	16.8273	-0.4037	-0.5062	 9.8205	 
   137	-1.3862	 0.0298	16.5868	 1.8592	 2.9057	 9.3852	 
   138	-1.3126	 0.0022	17.9282	-3.9213	 6.3780	 9.3400	 
   139	-0.6273	 0.1977	 9.9521	 2.1351	12.4063	10.8249	 
   140	 0.1316	 0.3655	 8.5878	 0.5397	16.6359	10.9498	 
   141	 0.2439	 0.3611	12.0552	-2.7647	16.7648	 9.9651	 
   142	 0.2400	 0.2871	 9.7661	-2.9315	17.2294	 9.6061	 
   143	 0.3136	 0.2595	 5.0120	-1.1760	17.6380	 8.9305	 
   144	 0.0077	 0.1479	 8.8370	-1.5764	15.1552	 8.0106	 
   145	-0.2943	 0.1104	 5.6188	-0.3880	13.1845	 7.5388	 
   146	-0.2982	 0.0364	 6.5479	-1.7432	12.5434	 7.4382	 
   147	 0.4219	 0.1811	 9.1977	-5.6078	16.9798	 9.1736	 
   148	 0.4955	 0.1534	 5.9067	-2.4810	17.4229	 9.0849	 
   149	 0.3019	 0.0375	11.5556	-5.5414	18.0770	 9.4056	 
   150	 0.3367	-0.0133	 7.4427	-3.0481	18.6579	 9.7534	 
   151	 0.1896	 0.0419	 8.3374	-4.3531	18.4556	 9.4907	 
   152	-0.0388	-0.0232	 9.1977	-5.6078	16.1707	 8.1229	 
   153	-0.1511	-0.0188	 5.4501	-5.1611	14.0019	 6.8247	 
   154	 0.2283	 0.0651	 6.9861	-5.7283	15.5166	 7.8022	 
   155	 0.9872	 0.2329	 1.2119	-5.4328	17.4486	 8.2508	 
   156	 1.0647	 0.2793	 0.3860	-4.2282	15.0002	 7.2807	 
   157	 0.9137	 0.2606	 4.8476	-5.8757	13.6576	 6.6894	 
   158	 0.9137	 0.2606	 4.8476	-5.8757	13.9029	 7.0486	 
   159	 0.8014	 0.2650	 4.8476	-5.8757	12.6249	 6.2836	 
   160	 0.5420	 0.3246	570.1002	-215.4991	11.5749	 5.5843	 
   161	 0.4297	 0.3290	570.9261	-216.7037	10.7659	 5.1708	 
   162	 0.9602	 0.4317	282.9285	-108.5592	14.3719	 6.7630	 
   163	 1.1460	 0.3997	283.7544	-109.7638	15.0559	 6.3230	 
   164	 0.8053	 0.3390	281.2079	-106.0497	15.2754	 6.2420	 
   165	 0.8401	 0.2882	 4.5764	-6.6752	15.7014	 6.4970	 
   166	 0.8092	 0.4130	 5.4023	-7.8797	14.7117	 6.1877	 
   167	 0.6543	 0.3202	20.3961	-13.4163	12.9518	 5.4882	 
   168	 0.3523	 0.2827	 2.8902	-4.2158	12.1729	 4.9512	 
   169	 0.1238	 0.2175	 3.7505	-5.4706	11.6264	 4.5532	 
   170	 0.0154	 0.2959	 5.4023	-7.8797	10.5506	 4.0509	 
   171	-0.0233	 0.2727	 4.5764	-6.6752	 8.7348	 3.6718	 
   172	 0.5033	 0.3014	 5.4023	-7.8797	11.9879	 4.9820	 
   173	 0.7317	 0.3666	 4.5764	-6.6752	12.4224	 4.7466	 
   174	 0.5807	 0.3478	 4.5764	-6.6752	11.2261	 4.1013	 
   175	 0.5807	 0.3478	 5.4023	-7.8797	11.3380	 4.0975	 
   176	 0.6969	 0.4174	 6.2282	-9.0843	10.8388	 3.8695	 
   177	 0.5459	 0.3986	 2.8902	-4.2158	 8.7304	 2.9613	 
   178	 0.3562	 0.3567	-251.0717	366.1898	 7.9257	 2.6212	 
   179	 0.1703	 0.3887	-251.0717	366.1898	 7.7665	 2.4551	 
   180	-0.0194	 0.3467	-116.3136	169.6439	 7.0005	 2.1382	 
   181	-0.1743	 0.2540	-116.3136	169.6439	 6.3852	 1.8406	 
   182	-0.1743	 0.2540	-116.3136	169.6439	 6.0152	 1.9023	 
   183	 0.6194	 0.3710	-0.0004	 0.0002	10.7657	 3.8965	 
   184	 0.6582	 0.3942	-0.0004	 0.0002	 9.2295	 3.1893	 
   185	 0.3949	 0.3798	-0.0004	 0.0002	 8.6916	 2.9381	 
   186	 0.4336	 0.4030	-0.0004	 0.0002	 9.2295	 3.1893	 
   187	 0.3601	 0.4307	-0.0004	 0.0002	 8.4937	 2.7488	 
   188	 0.1316	 0.3655	-0.0004	 0.0002	 6.7381	 2.1227	 
   189	-0.0581	 0.3235	 7.9832	-11.6440	 6.2776	 1.9178	 
   190	-0.1743	 0.2540	-13.3852	 4.9426	 6.1528	 1.7015	 
   191	-0.3253	 0.2352	-0.0004	 0.0002	 5.3137	 1.4116	 
   192	-0.5150	 0.1932	-0.0004	 0.0002	 4.3197	 1.0290	 
   193	-0.3292	 0.1612	-13.3852	 4.9426	 5.4171	 1.8982	 
   194	 0.3174	 0.3335	-0.0004	 0.0002	 8.5884	 3.0887	 
   195	 0.2400	 0.2871	-0.0004	 0.0002	 5.6968	 2.2073	 
   196	 0.0890	 0.2683	-0.0004	 0.0002	 5.6107	 2.0142	 
   197	 0.1277	 0.2915	-0.0004	 0.0002	 6.3379	 2.3079	 
   198	-0.0233	 0.2727	-0.0004	 0.0002	1303.8235	-477.9604	 
   199	-0.3292	 0.1612	-0.0004	 0.0002	1304.9247	-479.5665	 
   200	-0.5189	 0.1192	-0.0004	 0.0002	1019.6114	-374.6997	 
   201	-0.7086	 0.0773	 7.9832	-11.6440	1019.9899	-375.2518	 
   202	-0.8635	-0.0155	-0.0004	 0.0002	1021.0911	-376.8579	 
   203	-1.0145	-0.0342	-0.0004	 0.0002	 0.0296	-0.7604	 
   204	-0.6738	 0.0265	-0.0004	 0.0002	 2.9213	 0.7582	 
   205	 0.0038	 0.0739	-0.0004	 0.0002	 5.2793	 1.4618	 
   206	-0.2943	 0.1104	-0.0004	 0.0002	 1.5788	 0.1670	 
   207	-0.3718	 0.0640	-5.4015	-6.7016	 1.3206	 0.2248	 
   208	-0.1860	 0.0320	-0.0004	 0.0002	 3.0332	 0.7544	 
   209	-0.2982	 0.0364	-0.0004	 0.0002	 1.2733	 0.0549	 
   210	-0.4880	-0.0056	-13.3852	 4.9426	-0.2457	-0.3588	 
   211	-0.6390	-0.0243	-0.0004	 0.0002	-0.4092	-0.5983	 
   212	-0.7164	-0.0707	-0.0004	 0.0002	-0.3361	-0.6253	 
   213	-0.8287	-0.0663	-0.0004	 0.0002	-0.8696	-0.8031	 
   214	-0.4144	-0.0332	 7.9832	-11.6440	 1.7810	 0.4296	 
   215	 0.1896	 0.0419	-0.0004	 0.0002	 3.6442	 0.9786	 
   216	 0.0425	 0.0971	-0.0004	 0.0002	 1.2044	 0.1553	 
   217	 0.0386	 0.0231	-0.0004	 0.0002	 1.6261	 0.3369	 
   218	 0.1161	 0.0695	-13.3852	 4.9426	-620.4083	908.8541	 
   219	 0.0038	 0.0739	-0.0004	 0.0002	-623.0413	909.8264	 
   220	-0.1860	 0.0320	-0.0004	 0.0002	-489.9310	713.8515	 
   221	-0.3757	-0.0100	-0.0004	 0.0002	-490.5893	714.0945	 
   222	-0.3796	-0.0840	-0.0004	 0.0002	-492.7104	714.8778	 
   223	-0.5654	-0.0519	-0.0004	 0.0002	-3.3611	-1.8698	 
   224	-0.0776	-0.0464	-0.0004	 0.0002	-0.0133	-0.2197	 
   225	 0.4916	 0.0794	-0.0004	 0.0002	 2.6417	 1.0864	 
   226	 0.3406	 0.0607	-0.0004	 0.0002	 0.5074	 0.3751	 
   227	 0.3019	 0.0375	-0.0004	 0.0002	 1.0023	 0.5298	 
   228	 0.4916	 0.0794	-13.3852	 4.9426	 2.1770	 0.8082	 
   229	 0.3406	 0.0607	-0.0004	 0.0002	 0.9162	 0.3367	 
   230	 0.0773	 0.0463	-0.0004	 0.0002	-0.0692	 0.1008	 
   231	-0.0001	-0.0001	-0.0004	 0.0002	-0.0004	 0.0004	 
   232	-0.1163	-0.0696	-0.0004	 0.0002	-0.1209	-0.1425	 
   233	-0.2325	-0.1392	-0.0004	 0.0002	-0.8437	-0.3629	 
   234	-0.1550	-0.0928	-13.3852	 4.9426	-0.3360	 0.0119	 
   235	 0.6000	 0.0010	-0.0004	 0.0002	 3.6787	 1.5656	 
   236	 0.5264	 0.0286	-0.0004	 0.0002	 1.4670	 0.8080	 
   237	 0.4490	-0.0177	-0.0004	 0.0002	 1.2346	 0.6689	 
   238	 0.5264	 0.0286	-0.0004	 0.0002	 2.3491	 1.1944	 
   239	 0.4877	 0.0054	-0.0004	 0.0002	 1.7596	 0.6999	 
   240	 0.3019	 0.0375	-0.0004	 0.0002	 0.4257	 0.2554	 
   241	 0.1122	-0.0045	-0.0004	 0.0002	 0.1546	 0.0931	 
   242	 0.0695	-0.1017	-0.0004	 0.0002	 0.0771	 0.0468	 
   243	-0.0079	-0.1480	-0.0004	 0.0002	-0.5770	-0.2740	 
   244	-0.1937	-0.1160	-0.0004	 0.0002	-1.8765	-0.7687	 
   245	 0.3328	-0.0873	-0.0004	 0.0002	 1.5746	 0.7308	 
   246	 0.6736	-0.0266	-0.0004	 0.0002	 1.9188	 0.8660	 
   247	 0.5187	-0.1194	-0.0004	 0.0002	 0.0857	 0.1935	 
   248	 0.4838	-0.0685	-0.0004	 0.0002	 1.0754	 0.5028	 
   249	 0.6309	-0.1238	-0.0004	 0.0002	 1.5659	 0.5840	 
   250	 0.3716	-0.0641	-0.0004	 0.0002	-0.0391	-0.0228	 
   251	 0.2554	-0.1337	-0.0004	 0.0002	-0.5726	-0.2006	 
   252	 0.1779	-0.1801	-0.0004	 0.0002	-0.4608	-0.2044	 
   253	 0.0618	-0.2497	-0.0004	 0.0002	-0.6975	-0.4169	 
   254	-0.0892	-0.2684	-0.0004	 0.0002	-1.5710	-0.6566	 
   255	-0.0892	-0.2684	-0.0004	 0.0002	-2.0572	-0.6645	 
   256	 0.6271	-0.1978	-0.0004	 0.0002	 2.3362	 0.9743	 
   257	 0.6309	-0.1238	-0.0004	 0.0002	 0.7011	 0.4911	 
   258	 0.5148	-0.1933	-0.0004	 0.0002	-0.0692	 0.1008	 
   259	 0.6271	-0.1978	-0.0004	 0.0002	 1.0410	 0.5529	 
   260	 0.5187	-0.1194	-0.0004	 0.0002	 0.3912	 0.3056	 
   261	 0.4373	-0.2397	-0.0004	 0.0002	-1.2525	-0.3244	 
   262	 0.2863	-0.2585	-13.3852	 4.9426	-1.8635	-0.5486	 
   263	 0.1353	-0.2773	-0.0004	 0.0002	-1.9797	-0.6181	 
   264	 0.0230	-0.2728	-0.0004	 0.0002	-2.5563	-0.8925	 
   265	-0.0931	-0.3424	-0.0004	 0.0002	-3.7827	-1.4142	 
   266	 0.0579	-0.3236	-0.0004	 0.0002	-3.3437	-0.9391	 
   267	 0.7742	-0.2530	-0.0004	 0.0002	 0.1288	 0.2901	 
   268	 0.6232	-0.2718	-0.0004	 0.0002	-2.2335	-0.4869	 
   269	 0.5457	-0.3181	-0.0004	 0.0002	-2.2335	-0.4869	 
   270	 0.6967	-0.2994	-0.0004	 0.0002	-1.6268	-0.3361	 
   271	 0.5457	-0.3181	-0.0004	 0.0002	-3.1587	-0.9699	 
   272	 0.3908	-0.4109	-0.0004	 0.0002	-4.7164	-1.4068	 
   273	 0.2785	-0.4065	14.9934	-5.5364	-4.9918	-1.6425	 
   274	 0.2011	-0.4529	-0.0004	 0.0002	-5.0779	-1.8356	 
   275	 0.0888	-0.4484	-0.0004	 0.0002	-5.8395	-2.0791	 
   276	 0.0501	-0.4716	-13.3852	 4.9426	-6.9454	-2.4579	 
   277	 0.2011	-0.4529	-0.0004	 0.0002	-6.0847	-1.8011	 
   278	 0.7316	-0.3502	-0.0004	 0.0002	-2.9177	-0.6841	 
   279	 0.4992	-0.4893	-0.0004	 0.0002	-5.6931	-1.4959	 
   280	 0.2708	-0.5545	-0.0004	 0.0002	-5.8480	-1.5887	 
   281	 0.4218	-0.5357	-0.0004	 0.0002	-5.5726	-1.3530	 
   282	 0.3792	-0.6329	-0.0004	 0.0002	-8.2060	-2.2923	 
   283	 0.1198	-0.5732	-13.3852	 4.9426	-9.1139	-2.4818	 
   284	 0.0384	-0.6936	-0.0004	 0.0002	-9.3076	-2.5977	 
   285	-0.0351	-0.6660	-0.0004	 0.0002	-9.7336	-2.8527	 
   286	-0.1474	-0.6616	-0.0004	 0.0002	-10.7362	-3.3821	 
   287	-0.2248	-0.7080	-13.3852	 4.9426	-11.5882	-3.8921	 
   288	 0.3404	-0.6561	-13.3852	 4.9426	-8.1716	-2.3425	 
   289	 0.5689	-0.5909	-0.0004	 0.0002	-8.8085	-3.0069	 
   290	 0.4179	-0.6097	-0.0004	 0.0002	-10.7965	-3.7721	 
   291	 0.5341	-0.5401	-13.3852	 4.9426	-10.1855	-3.5480	 
   292	 0.6076	-0.5677	-13.3852	 4.9426	-9.3550	-3.4048	 
   293	 0.5689	-0.5909	-5.4015	-6.7016	-10.7707	-3.9691	 
   294	 0.4953	-0.5633	-13.3852	 4.9426	-11.3086	-4.2203	 
   295	 0.4566	-0.5865	-5.4015	-6.7016	-10.9687	-4.1584	 
   296	 0.3830	-0.5589	-13.3852	 4.9426	-10.6331	-4.1698	 
   297	 0.2708	-0.5545	-5.4015	-6.7016	-10.9730	-4.2317	 
   298	 0.2708	-0.5545	-5.4015	-6.7016	-10.7363	-4.0193	 
   299	 1.0993	-0.4883	-13.3852	 4.9426	-6.2999	-2.2839	 
   300	 1.0684	-0.3635	-13.3852	 4.9426	-7.3155	-3.0334	 
   301	 0.9909	-0.4098	-13.3852	 4.9426	-7.4317	-3.1030	 
   302	 0.9909	-0.4098	-0.0004	 0.0002	-6.8551	-2.8286	 
   303	 0.9522	-0.4330	-0.0004	 0.0002	-7.4317	-3.1030	 
   304	 0.5341	-0.5401	-0.0004	 0.0002	-6.9282	-2.8016	 
   305	 0.2669	-0.6285	-0.0004	 0.0002	-5.6244	-2.2335	 
   306	 0.1507	-0.6980	-0.0004	 0.0002	-5.7319	-2.1563	 
   307	-0.0351	-0.6660	-0.0004	 0.0002	-6.4247	-2.5002	 
   308	-0.2287	-0.7820	-0.0004	 0.0002	-8.2191	-3.1496	 
   309	 0.0733	-0.7444	-0.0004	 0.0002	-5.5297	-1.8936	 
   310	 0.4488	-0.7345	-0.0004	 0.0002	-3.4040	-1.3291	 
   311	 0.1468	-0.7720	-0.0004	 0.0002	-5.3834	-1.9477	 
   312	 0.1429	-0.8460	-0.0004	 0.0002	-5.0391	-1.8124	 
   313	 0.1042	-0.8692	-0.0004	 0.0002	-4.0495	-1.5031	 
   314	-0.1939	-0.8328	-0.0004	 0.0002	-5.3016	-1.8279	 
   315	-0.2365	-0.9300	-0.0004	 0.0002	-5.9126	-2.0521	 
   316	-0.4224	-0.8979	-0.0004	 0.0002	-5.7233	-2.0096	 
   317	-0.4998	-0.9443	-0.0004	 0.0002	-5.7663	-2.1061	 
   318	-0.3875	-0.9487	-0.0004	 0.0002	-5.4522	-1.8473	 
   319	 0.2552	-0.8505	-0.0004	 0.0002	-1.5021	-0.7570	 
   320	 0.2552	-0.8505	-0.0004	 0.0002	-2.6725	-0.9620	 
   321	 0.1429	-0.8460	-0.0004	 0.0002	-2.4488	-0.9697	 
   322	 0.2204	-0.7997	-0.0004	 0.0002	-1.7259	-0.7493	 
   323	 0.1081	-0.7952	-0.0004	 0.0002	-2.5994	-0.9891	 
   324	-0.0081	-0.8648	-0.0004	 0.0002	-3.2190	-1.3600	 
   325	-0.1939	-0.8328	-0.0004	 0.0002	-3.2534	-1.3098	 
   326	-0.2713	-0.8792	-0.0004	 0.0002	-3.4384	-1.2790	 
   327	-0.3836	-0.8747	-0.0004	 0.0002	-3.7784	-1.3408	 
   328	 0.3327	-0.8041	-0.0004	 0.0002	-0.2026	-0.2623	 
   329	 0.4837	-0.7853	14.9934	-5.5364	-0.2026	-0.2623	 
   330	 0.3714	-0.7809	-0.0004	 0.0002	-0.2414	-0.2855	 
   331	 0.4449	-0.8085	-0.0004	 0.0002	 0.0297	-0.1232	 
   332	 0.3365	-0.7301	14.9934	-5.5364	-0.0520	-0.2429	 
   333	 0.1855	-0.7489	-0.0004	 0.0002	-1.1449	-0.4016	 
   334	 0.0345	-0.7676	-0.0004	 0.0002	-1.2267	-0.5213	 
   335	-0.0777	-0.7632	-0.0004	 0.0002	-1.3816	-0.6141	 
   336	-0.1513	-0.7356	-0.0004	 0.0002	-1.5666	-0.5832	 
   337	 0.5263	-0.6881	-0.0004	 0.0002	 1.7423	 0.4064	 
   338	 0.6773	-0.6694	-0.0004	 0.0002	 1.8111	 0.3061	 
   339	 0.5650	-0.6649	-0.0004	 0.0002	 1.5573	 0.4373	 
   340	 0.6037	-0.6417	-0.0004	 0.0002	 1.7810	 0.4296	 
   341	 0.5302	-0.6141	-0.0004	 0.0002	 1.5099	 0.2673	 
   342	 0.3792	-0.6329	-0.0004	 0.0002	 0.4815	-0.0651	 
   343	 0.1894	-0.6749	-9.2229	13.4512	 0.1803	-0.1038	 
   344	 0.1468	-0.7720	-0.0004	 0.0002	-0.1252	-0.2159	 
   345	-0.0003	-0.7168	-9.2229	13.4512	-0.5813	-0.3474	 
   346	-0.1513	-0.7356	-0.0004	 0.0002	-1.2999	-0.4943	 
   347	 0.4914	-0.6373	14.9934	-5.5364	 1.9833	 0.6923	 
   348	 0.7199	-0.5722	-9.2229	13.4512	 2.6545	 0.6693	 
   349	 0.5689	-0.5909	-9.2229	13.4512	 2.3146	 0.6074	 
   350	 0.5728	-0.5169	-9.2229	13.4512	 2.7707	 0.7389	 
   351	 0.6463	-0.5446	-9.2229	13.4512	 2.6201	 0.7195	 
   352	 0.4218	-0.5357	-9.2229	13.4512	 1.5616	 0.5106	 
   353	 0.3056	-0.6053	-9.2229	13.4512	 1.5099	 0.2673	 
   354	 0.1933	-0.6009	-9.2229	13.4512	 1.0281	 0.3328	 
   355	 0.0075	-0.5688	-0.0004	 0.0002	 0.7182	 0.1474	 
   356	-0.1087	-0.6384	-0.0004	 0.0002	 0.0384	 0.0236	 
   357	-0.2597	-0.6572	-0.0004	 0.0002	-0.3876	-0.2314	 
   358	-0.4107	-0.6759	-9.2229	13.4512	-1.0632	-0.2819	 
   359	 0.3443	-0.5821	-9.2229	13.4512	 2.4868	 0.9937	 
   360	 0.6115	-0.4938	-9.2229	13.4512	 2.7449	 0.9358	 
   361	 0.4953	-0.5633	14.9934	-5.5364	 2.0608	 0.7386	 
   362	 0.5341	-0.5401	14.9934	-5.5364	 2.6675	 0.8894	 
   363	 0.5341	-0.5401	-9.2229	13.4512	 2.7793	 0.8856	 
   364	 0.3482	-0.5081	14.9934	-5.5364	 1.5229	 0.4875	 
   365	 0.1585	-0.5501	-0.0004	 0.0002	 1.2948	 0.4217	 
   366	 0.0462	-0.5456	-9.2229	13.4512	 1.2174	 0.3754	 
   367	-0.1048	-0.5644	-0.0004	 0.0002	 0.9119	 0.2633	 
   368	-0.2210	-0.6340	-0.0004	 0.0002	 0.2664	 0.0893	 
   369	-0.3720	-0.6527	-9.2229	13.4512	-0.3747	-0.0113	 
   370	-0.5230	-0.6715	-9.2229	13.4512	-0.9814	-0.1621	 
   371	 0.1585	-0.5501	 5.7710	 7.9146	 2.8698	 1.1521	 
   372	 0.4605	-0.5125	14.9934	-5.5364	 3.0160	 1.0981	 
   373	 0.1972	-0.5269	14.9934	-5.5364	 1.9489	 0.7425	 
   374	 0.2320	-0.5777	-9.2229	13.4512	 2.5642	 1.0400	 
   375	 0.2320	-0.5777	-0.0004	 0.0002	 2.8267	 1.0556	 
   376	 0.0036	-0.6428	-0.0004	 0.0002	 1.6434	 0.6304	 
   377	-0.2210	-0.6340	-0.0004	 0.0002	 1.3852	 0.6882	 
   378	-0.2984	-0.6804	-0.0004	 0.0002	 1.6821	 0.6536	 
   379	-0.4455	-0.6251	-9.2229	13.4512	 1.4541	 0.5878	 
   380	-0.5230	-0.6715	-0.0004	 0.0002	 1.1786	 0.3522	 
   381	-0.6004	-0.7179	-9.2229	13.4512	 0.3138	 0.2592	 
   382	-0.1783	-0.5368	-0.0004	 0.0002	 2.5341	 1.1636	 
   383	 0.3869	-0.4849	 5.7710	 7.9146	 4.4661	 1.6122	 
   384	 0.2011	-0.4529	-0.0004	 0.0002	 2.7923	 1.1057	 
   385	 0.2359	-0.5037	-0.0004	 0.0002	 3.7519	 1.5386	 
   386	 0.3521	-0.4341	-0.0004	 0.0002	 4.6942	 1.6779	 
   387	 0.2785	-0.4065	14.9934	-5.5364	 2.3319	 0.9009	 
   388	 0.2824	-0.3325	 5.7710	 7.9146	-0.1036	 0.1510	 
   389	 0.3212	-0.3093	-9.2229	13.4512	-0.7964	-0.1930	 
   390	 0.3289	-0.1613	-0.0004	 0.0002	-1.4332	-0.2202	 
   391	 0.4451	-0.0917	-0.0004	 0.0002	-1.6612	-0.2859	 
   392	 0.6000	 0.0010	-0.0004	 0.0002	-2.0012	-0.3478	 
   393	 1.5525	 0.2848	-0.0004	 0.0002	 2.6417	 1.0864	 
   394	 2.0481	 0.4383	-0.0004	 0.0002	 3.2527	 1.3106	 
   395	 2.1295	 0.5587	-13.3852	 4.9426	 4.1736	 1.7202	 
   396	 2.4392	 0.7442	-13.3852	 4.9426	 6.5445	 2.6439	 
   397	 2.9039	 1.0225	-13.3852	 4.9426	 8.7863	 3.2780	 
   398	 2.9504	 1.1937	-5.4015	-6.7016	13.2442	 4.7430	 
   399	 3.3028	 1.4764	-5.4015	-6.7016	20.5120	 7.6069	 
   400	 4.7821	 2.5057	-5.4015	-6.7016	25.4822	10.7944	 
   401	 6.4510	 3.5769	-10.4153	-12.5344	24.4409	10.8790	 
   402	 7.3068	 4.1611	-17.4698	-2.2453	22.7069	10.6197	 
   403	 8.1587	 4.6713	-10.4153	-12.5344	21.2570	11.3800	 
   404	 9.1112	 4.9551	-10.4153	-12.5344	18.8522	13.0552	 
   405	 9.1500	 4.9783	-17.4698	-2.2453	 8.3922	12.4570	 
   406	 8.9215	 4.9131	-5.4015	-6.7016	 2.9707	11.7602	 
   407	 9.0647	 4.7839	-17.4698	-2.2453	-0.1747	11.0100	 
   408	 8.7898	 4.5476	-10.4153	-12.5344	-4.2711	 9.9737	 
   409	 8.1006	 4.2781	-17.4698	-2.2453	-8.5137	 8.9914	 
   410	 7.0977	 3.7491	-5.4015	-6.7016	-10.8330	 8.3110	 
   411	 6.4394	 3.3549	-5.4015	-6.7016	-10.9191	 8.1179	 
   412	 5.0105	 2.5708	-5.4015	-6.7016	-8.5524	 8.9683	 
   413	 4.6464	 2.0661	-5.4015	-6.7016	-7.5885	 9.4744	 
   414	 4.7897	 1.9369	-5.4015	-6.7016	-6.9173	 9.4515	 
   415	 4.4102	 1.8530	-5.4015	-6.7016	-5.9492	 9.3939	 
   416	 4.3754	 1.9038	-17.4698	-2.2453	-3.4708	 9.6032	 
   417	 4.3018	 1.9314	-10.4153	-12.5344	-2.0122	 9.6269	 
   418	 3.5739	 1.6387	-5.4015	-6.7016	-3.0493	 9.1477	 
   419	 3.1131	 1.4344	-17.4698	-2.2453	-2.6104	 8.9856	 
   420	 2.9582	 1.3417	-17.4698	-2.2453	-0.4203	 9.3764	 
   421	 2.7646	 1.2257	-17.4698	-2.2453	-0.4676	 9.2065	 
   422	 2.8730	 1.1473	-10.4153	-12.5344	 0.1735	 9.3071	 
   423	 3.2098	 1.1340	-17.4698	-2.2453	 1.5805	 9.7246	 
   424	 2.8691	 1.0733	-17.4698	-2.2453	 2.2217	 9.8252	 
   425	 2.6755	 0.9574	-17.4698	-2.2453	 2.4411	 9.7442	 
   426	 2.6019	 0.9850	-5.4015	-6.7016	 2.3335	 9.8214	 
   427	 2.4587	 1.1142	-5.4015	-6.7016	 1.9032	 9.4930	 
   428	 2.3077	 1.0954	-5.4015	-6.7016	 1.1029	 9.2263	 
   429	 2.0792	 1.0303	-5.4015	-6.7016	-2.4945	 7.7808	 
   430	 1.8508	 0.9651	-5.4015	-6.7016	-6.6255	 5.5204	 
   431	 1.5410	 0.7796	 7.9832	-11.6440	-12.4776	 3.2208	 
   432	 2.2573	 0.8503	-0.0004	 0.0002	-17.1033	 1.4429	 
   433	 2.5167	 0.7906	14.9934	-5.5364	-27.9167	-2.6231	 
   434	 2.1372	 0.7067	14.9934	-5.5364	-38.7258	-6.6158	 
   435	 1.9862	 0.6879	22.7396	 1.6488	-44.1261	-8.8573	 
   436	 1.9862	 0.6879	22.7396	 1.6488	-47.1210	-10.2253	 
   437	 1.7578	 0.6228	 5.7710	 7.9146	-53.4722	-12.7529	 
   438	 1.4558	 0.5852	 5.7710	 7.9146	-56.7210	-13.9897	 
   439	 1.2273	 0.5201	22.7396	 1.6488	-59.2726	-14.8092	 
   440	 0.9989	 0.4549	 5.7710	 7.9146	-61.4155	-15.6672	 
   441	 0.7743	 0.4638	22.7396	 1.6488	-63.1281	-16.1968	 
   442	 1.1847	 0.4229	22.7396	 1.6488	-61.4801	-15.4935	 
   443	 1.6765	 0.5024	22.7396	 1.6488	-59.9224	-15.0566	 
   444	 1.3745	 0.4648	22.7396	 1.6488	-62.8656	-16.1813	 
   445	 1.2970	 0.4185	11.8309	17.5592	-62.4139	-16.1232	 
   446	 1.1847	 0.4229	22.7396	 1.6488	-56.7166	-13.2792	 
   447	 0.8827	 0.3854	22.7396	 1.6488	-44.3065	-7.4787	 
   448	 0.6621	 0.4682	-0.0004	 0.0002	-26.5994	 0.7138	 
   449	 0.7938	 0.8337	-29.0858	-18.6844	-7.6527	11.5597	 
   450	 1.6186	 1.5427	-29.0858	-18.6844	-12.2718	21.9616	 
   451	 1.9440	 2.0243	-40.8582	-19.9974	-15.9692	37.8704	 
   452	 2.2964	 2.3070	-48.5379	-17.1616	-23.1925	42.7492	 
   453	 3.4734	 2.5819	-43.7547	-24.1380	-21.9099	44.8620	 
   454	 3.2837	 2.5400	-55.8520	-14.4608	-20.6104	45.3567	 
   455	 2.8268	 2.4097	-48.5379	-17.1616	-18.6957	45.5118	 
   456	 3.0127	 2.3776	-40.8582	-19.9974	-16.3679	45.7018	 
   457	 2.8694	 2.5068	-37.8627	-15.4435	-13.7903	46.9615	 
   458	 2.8733	 2.5808	-34.7638	-10.4030	-11.6128	49.0437	 
   459	 2.9934	 2.7244	-34.7638	-10.4030	-11.0105	48.4839	 
   460	 2.9856	 2.5764	-34.7638	-10.4030	-10.8128	47.3989	 
   461	 2.6410	 2.4417	-37.8627	-15.4435	-12.3708	45.0505	 
   462	 3.4269	 2.4107	-43.5407	-7.1620	-14.4276	44.3856	 
   463	 4.2516	 2.4030	-31.6261	-4.7021	-23.6751	38.9917	 
   464	 3.5507	 1.9115	-13.3852	 4.9426	-36.6120	22.9653	 
   465	 2.6988	 1.4013	31.4326	10.3211	-50.6069	 9.2789	 
   466	 1.3435	 0.5896	41.3007	21.1834	-71.7835	-7.7156	 
   467	 0.6156	 0.2970	41.3007	21.1834	-80.1706	-13.7271	 
   468	 0.2748	 0.2363	18.1151	29.7448	-82.3008	-15.6393	 
   469	 0.1199	 0.1435	31.4326	10.3211	-83.2131	-16.5394	 
   470	 0.1161	 0.0695	41.3007	21.1834	-83.8328	-16.9103	 
   471	 0.0812	 0.1203	18.1151	29.7448	-84.4998	-17.4511	 
   472	 0.7975	 0.1910	18.1151	29.7448	-82.3870	-16.4696	 
   473	 1.0995	 0.2285	31.4326	10.3211	-82.0988	-16.6510	 
   474	 0.9872	 0.2329	31.4326	10.3211	-83.0239	-17.1340	 
   475	 1.0956	 0.1545	31.4326	10.3211	-82.8604	-16.8945	 
   476	 0.9911	 0.3069	31.4326	10.3211	-82.5549	-16.7824	 
   477	 0.8749	 0.2374	18.1151	29.7448	-83.0196	-17.0606	 
   478	 0.6852	 0.1954	31.4326	10.3211	-83.5618	-17.3852	 
   479	 0.6117	 0.2230	31.4326	10.3211	-83.8889	-17.8641	 
   480	 0.4258	 0.2550	31.4326	10.3211	-84.1987	-18.0496	 
   481	 0.6891	 0.2694	11.8309	17.5592	-83.7727	-17.7946	 
   482	 1.6726	 0.4284	31.4326	10.3211	-80.7090	-16.5270	 
   483	 1.7539	 0.5488	31.4326	10.3211	-81.3630	-16.8477	 
   484	 1.6416	 0.5532	31.4326	10.3211	-81.9009	-17.0989	 
   485	 1.7191	 0.5996	11.8309	17.5592	-81.4061	-16.9443	 
   486	 1.6416	 0.5532	31.4326	10.3211	-81.8708	-17.2224	 
   487	 1.4171	 0.5620	31.4326	10.3211	-82.4905	-17.5934	 
   488	 1.2312	 0.5941	42.3413	-5.5893	-82.9509	-17.7982	 
   489	 1.1577	 0.6217	11.8309	17.5592	-83.1790	-17.8639	 
   490	 1.0802	 0.5753	11.8309	17.5592	-83.4544	-18.0996	 
   491	 1.5758	 0.7288	11.8309	17.5592	-81.3845	-16.5774	 
   492	 2.5245	 0.9386	11.8309	17.5592	-76.8403	-13.6449	 
   493	 2.4935	 1.0634	22.7396	 1.6488	-74.8951	-11.7018	 
   494	 2.4548	 1.0402	22.7396	 1.6488	-73.8322	-10.7824	 
   495	 2.5710	 1.1098	 5.7710	 7.9146	-73.0189	-10.2956	 
   496	 2.3812	 1.0678	11.8309	17.5592	-72.8640	-10.2028	 
   497	 2.1915	 1.0259	22.7396	 1.6488	-72.8640	-10.2028	 
   498	 2.0444	 1.0811	 5.7710	 7.9146	-70.3551	-8.2055	 
   499	 2.0483	 1.1551	-0.0004	 0.0002	-59.0033	-0.7024	 
   500	 2.0251	 1.4279	-31.6261	-4.7021	-42.5432	11.6989	 
   501	 2.9158	 1.9613	-34.7638	-10.4030	-38.5838	16.7590	 
   502	 3.8761	 2.3930	-37.8627	-15.4435	-28.2251	27.7025	 
   503	 3.8373	 2.3699	-37.8627	-15.4435	-26.3694	34.4765	 
   504	 3.5740	 2.3555	-43.5407	-7.1620	-27.5265	36.4031	 
   505	 3.8451	 2.5178	-37.8627	-15.4435	-25.7836	38.0835	 
   506	 3.6593	 2.5499	-43.5407	-7.1620	-22.7971	40.5791	 
   507	 3.3882	 2.3875	-34.7638	-10.4030	-23.2186	41.0346	 
   508	 3.1985	 2.3456	-34.7638	-10.4030	-23.9286	41.0344	 
   509	 3.0049	 2.2296	-34.7638	-10.4030	-23.7048	41.0268	 
   510	 2.6680	 2.2429	-34.7638	-10.4030	-25.0259	40.1652	 
   511	 2.7764	 2.1645	-41.0612	-1.2181	-26.8676	39.3459	 
   512	 3.7521	 2.1755	-43.5407	-7.1620	-26.7387	38.3612	 
   513	 3.6320	 2.0319	-34.7638	-10.4030	-26.0160	37.9444	 
   514	 3.3532	 1.7216	-25.3286	-13.8870	-26.2401	36.0405	 
   515	 3.3454	 1.5736	-28.5140	 1.8328	-27.8160	29.5755	 
   516	 3.0666	 1.2633	-0.0004	 0.0002	-39.0998	18.1490	 
   517	 2.4509	 0.9662	11.8309	17.5592	-55.8441	 4.7281	 
   518	 1.6533	 0.7752	31.4326	10.3211	-68.1688	-5.3395	 
   519	 1.1499	 0.4737	31.4326	10.3211	-73.2253	-9.3573	 
   520	 0.6582	 0.3942	31.4326	10.3211	-77.2661	-12.6255	 
   521	 0.6233	 0.4450	41.3007	21.1834	-80.0331	-14.5650	 
   522	 1.6068	 0.6040	54.6182	 1.7597	-78.6088	-13.8540	 
   523	 1.9127	 0.7155	18.1151	29.7448	-78.9358	-14.3330	 
   524	 1.9824	 0.6139	18.1151	29.7448	-80.0030	-14.6886	 
   525	 2.0250	 0.7111	41.3007	21.1834	-80.1493	-14.6346	 
   526	 1.9514	 0.7387	54.6182	 1.7597	-80.3602	-15.0440	 
   527	 1.7617	 0.6968	31.4326	10.3211	-81.0229	-15.5114	 
   528	 1.5720	 0.6548	41.3007	21.1834	-81.6296	-15.6623	 
   529	 1.3861	 0.6868	31.4326	10.3211	-81.9308	-15.7010	 
   530	 1.2390	 0.7421	31.4326	10.3211	-82.2277	-15.6663	 
   531	 1.1267	 0.7465	18.1151	29.7448	-82.1416	-15.4732	 
   532	 1.6959	 0.8724	31.4326	10.3211	-80.7000	-14.4687	 
   533	 2.3774	 0.9938	54.6182	 1.7597	-79.0002	-13.5220	 
   534	 2.3425	 1.0446	31.4326	10.3211	-79.5123	-13.9701	 
   535	 2.3774	 0.9938	18.1151	29.7448	-79.8479	-13.9587	 
   536	 2.3812	 1.0678	18.1151	29.7448	-79.6199	-13.8929	 
   537	 2.2302	 1.0490	31.4326	10.3211	-79.9297	-14.0784	 
   538	 2.0057	 1.0579	31.4326	10.3211	-80.4977	-14.2060	 
   539	 1.8934	 1.0623	31.4326	10.3211	-80.6053	-14.1288	 
   540	 1.8160	 1.0159	31.4326	10.3211	-80.2007	-13.6035	 
   541	 1.6301	 1.0480	31.4326	10.3211	-80.2308	-13.4799	 
   542	 1.7076	 1.0943	31.4326	10.3211	-80.0586	-13.0937	 
   543	 2.5788	 1.2578	31.4326	10.3211	-77.1712	-11.6485	 
   544	 2.6949	 1.3273	31.4326	10.3211	-76.3751	-10.8180	 
   545	 2.6988	 1.4013	22.7396	 1.6488	-66.7142	-3.4777	 
   546	 2.9273	 1.4665	-0.0004	 0.0002	-52.5049	 6.2314	 
   547	 3.0938	 1.7812	-31.6261	-4.7021	-43.4722	13.6912	 
   548	 3.4075	 2.0408	-34.7638	-10.4030	-41.1998	16.7504	 
   549	 3.4153	 2.1888	-34.7638	-10.4030	-39.5338	21.5703	 
   550	 3.4153	 2.1888	-34.7638	-10.4030	-36.5499	32.9130	 
   551	 3.1133	 2.1512	-34.7638	-10.4030	-35.4864	37.0183	 
   552	 3.0784	 2.2020	-34.7638	-10.4030	-32.5384	40.1279	 
   553	 3.3417	 2.2164	-31.6261	-4.7021	-29.5089	42.7201	 
   554	 4.1006	 2.3842	-28.5140	 1.8328	-27.2368	43.8678	 
   555	 4.0619	 2.3610	-28.5140	 1.8328	-26.1137	44.5401	 
   556	 3.8025	 2.4207	-17.4698	-2.2453	-23.6267	44.8962	 
   557	 3.9070	 2.2682	-31.6261	-4.7021	-22.3920	43.6531	 
   558	 3.4384	 1.9160	-40.8582	-19.9974	-24.7635	40.1807	 
   559	 2.3542	 1.2666	-40.8582	-19.9974	-25.2325	39.8291	 
   560	 1.5023	 0.7564	-25.3286	-13.8870	-26.6709	33.1634	 
   561	 1.0725	 0.4273	 5.7710	 7.9146	-46.6984	17.9187	 
   562	 0.7627	 0.2418	22.7396	 1.6488	-64.1828	 3.9839	 
   563	 0.7239	 0.2186	31.4326	10.3211	-71.8173	-3.8423	 
   564	 0.9137	 0.2606	31.4326	10.3211	-78.1347	-9.6060	 
   565	 0.9176	 0.3345	41.3007	21.1834	-83.7074	-13.5081	 
   566	 0.8440	 0.3622	41.3007	21.1834	-85.5190	-14.4510	 
   567	 1.0337	 0.4041	41.3007	21.1834	-86.1129	-15.0188	 
   568	 0.8866	 0.4593	41.3007	21.1834	-86.5862	-15.4438	 
   569	 0.8092	 0.4130	41.3007	21.1834	-87.0380	-15.5018	 
   570	 0.6233	 0.4450	41.3007	21.1834	-87.1885	-14.8840	 
   571	 0.4723	 0.4262	41.3007	21.1834	-86.9904	-14.0576	 
   572	 0.3601	 0.4307	41.3007	21.1834	-87.0807	-13.6869	 
   573	 0.5537	 0.5466	41.3007	21.1834	-86.5557	-13.0186	 
   574	 1.3087	 0.6405	41.3007	21.1834	-84.3180	-11.8208	 
   575	 1.4597	 0.6592	41.3007	21.1834	-83.3196	-10.7276	 
   576	 1.5023	 0.7564	41.3007	21.1834	-83.5046	-10.6968	 
   577	 1.6185	 0.8260	41.3007	21.1834	-83.6639	-10.8629	 
   578	 1.5449	 0.8536	41.3007	21.1834	-83.9393	-11.0985	 
   579	 1.5062	 0.8304	41.3007	21.1834	-84.3136	-11.1102	 
   580	 1.5062	 0.8304	41.3007	21.1834	-84.4513	-10.9095	 
   581	 1.3939	 0.8348	41.3007	21.1834	-84.5502	-10.6855	 
   582	 1.2816	 0.8392	41.3007	21.1834	-84.5803	-10.5619	 
   583	 1.3242	 0.9364	41.3007	21.1834	-84.4468	-10.1989	 
   584	 2.0405	 1.0071	41.3007	21.1834	-82.6051	-9.3796	 
   585	 2.2302	 1.0490	41.3007	21.1834	-82.3383	-9.2907	 
   586	 2.2341	 1.1230	41.3007	21.1834	-82.2867	-9.0474	 
   587	 2.4239	 1.1650	41.3007	21.1834	-81.9338	-8.7654	 
   588	 2.3890	 1.2158	41.3007	21.1834	-82.0026	-8.6650	 
   589	 2.3116	 1.1694	41.3007	21.1834	-82.1059	-8.5145	 
   590	 2.1993	 1.1738	41.3007	21.1834	-82.3554	-8.3099	 
   591	 2.1257	 1.2015	41.3007	21.1834	-82.2779	-8.2635	 
   592	 2.0135	 1.2059	41.3007	21.1834	-82.4242	-8.2095	 
   593	 1.9012	 1.2103	41.3007	21.1834	-82.5404	-8.2790	 
   594	 2.3929	 1.2898	41.3007	21.1834	-81.4173	-7.6067	 
   595	 2.8846	 1.3693	41.3007	21.1834	-79.9284	-7.0695	 
   596	 2.8498	 1.4201	18.1151	29.7448	-78.7450	-6.0071	 
   597	 2.9621	 1.4157	31.4326	10.3211	-77.6734	-4.9410	 
   598	 3.0783	 1.4853	18.1151	29.7448	-75.5304	-3.4458	 
   599	 2.9660	 1.4897	11.8309	17.5592	-67.5778	 3.4383	 
   600	 2.7801	 1.5217	 5.7710	 7.9146	-55.2267	15.8576	 
   601	 3.1325	 1.8044	-17.4698	-2.2453	-55.7174	15.1392	 
   602	 3.5894	 1.9347	-31.6261	-4.7021	-41.6595	20.3687	 
   603	 3.6630	 1.9071	-37.8627	-15.4435	-35.0312	32.0524	 
   604	 3.5855	 1.8607	-37.8627	-15.4435	-36.6832	33.1872	 
   605	 3.6978	 1.8563	-43.5407	-7.1620	-34.3981	35.1921	 
   606	 4.6387	 1.9181	-41.0612	-1.2181	-31.7387	37.2088	 
   607	 5.0568	 2.0252	-28.5140	 1.8328	-29.1740	38.8856	 
   608	 4.8671	 1.9833	-17.4698	-2.2453	-29.6302	38.1170	 
   609	 4.7122	 1.8905	-28.5140	 1.8328	-30.3187	37.8464	 
   610	 4.6309	 1.7701	-41.0612	-1.2181	-33.4082	36.7757	 
   611	 5.0839	 1.8264	-41.0612	-1.2181	-37.6253	34.3222	 
   612	 4.8942	 1.7845	-28.5140	 1.8328	-43.2456	28.9758	 
   613	 4.3172	 1.5106	11.8309	17.5592	-50.7341	19.1840	 
   614	 3.7054	 1.2875	18.1151	29.7448	-64.7371	 7.8995	 
   615	 2.8265	 0.9761	41.3007	21.1834	-76.9458	-2.7357	 
   616	 2.1334	 0.6327	41.3007	21.1834	-82.9664	-8.5340	 
   617	 2.4354	 0.6702	41.3007	21.1834	-84.7395	-10.7281	 
   618	 2.4741	 0.6934	24.0946	46.2786	-86.1768	-11.6592	 
   619	 2.2882	 0.7255	41.3007	21.1834	-86.6028	-11.9142	 
   620	 2.4741	 0.6934	41.3007	21.1834	-86.5684	-11.9644	 
   621	 2.5128	 0.7166	41.3007	21.1834	-87.1665	-11.9684	 
   622	 2.3270	 0.7486	41.3007	21.1834	-87.3945	-12.0342	 
   623	 2.2882	 0.7255	41.3007	21.1834	-87.7301	-12.0227	 
   624	 2.1411	 0.7807	41.3007	21.1834	-87.6053	-11.8064	 
   625	 2.1372	 0.7067	41.3007	21.1834	-87.8204	-11.6520	 
   626	 2.1024	 0.7575	41.3007	21.1834	-87.9323	-11.6482	 
   627	 2.7878	 0.9529	41.3007	21.1834	-85.8022	-10.3731	 
   628	 3.1672	 1.0369	41.3007	21.1834	-85.4623	-10.3112	 
   629	 3.1285	 1.0137	41.3007	21.1834	-85.8022	-10.3731	 
   630	 3.2408	 1.0092	41.3007	21.1834	-85.3890	-9.7011	 
   631	 3.2446	 1.0832	41.3007	21.1834	-85.2298	-9.5350	 
   632	 3.1711	 1.1109	41.3007	21.1834	-85.2556	-9.3380	 
   633	 3.1363	 1.1617	18.1151	29.7448	-85.2857	-9.2145	 
   634	 3.0240	 1.1661	18.1151	29.7448	-85.3932	-9.1373	 
   635	 2.9504	 1.1937	41.3007	21.1834	-85.5438	-9.1566	 
   636	 2.8769	 1.2213	18.1151	29.7448	-85.9569	-9.1915	 
   637	 3.4460	 1.3472	18.1151	29.7448	-84.3303	-8.2178	 
   638	 4.0888	 1.4455	18.1151	29.7448	-83.0695	-7.7463	 
   639	 4.1662	 1.4918	18.1151	29.7448	-83.4051	-7.7348	 
   640	 4.2785	 1.4874	18.1151	29.7448	-83.3233	-7.6151	 
   641	 4.3559	 1.5338	18.1151	29.7448	-83.2416	-7.4953	 
   642	 4.2824	 1.5614	18.1151	29.7448	-83.6202	-7.5804	 
   643	 4.1701	 1.5658	18.1151	29.7448	-83.8870	-7.6693	 
   644	 4.2824	 1.5614	31.4326	10.3211	-83.3190	-7.5417	 
   645	 4.4295	 1.5062	11.8309	17.5592	-77.0751	-3.6625	 
   646	 4.6424	 1.2753	-13.3852	 4.9426	-62.0439	 6.6801	 
   647	 4.6346	 1.1274	-25.3286	-13.8870	-52.9560	 9.9964	 
   648	 5.6568	 1.3095	-37.8627	-15.4435	-39.7112	16.0133	 
   649	 6.3343	 1.3570	-48.5379	-17.1616	-20.6871	26.2684	 
   650	 6.0981	 1.1439	-53.5048	-25.3731	-15.8713	31.9119	 
   651	 6.1678	 1.0423	-60.0143	-22.9694	-13.2762	35.3767	 
   652	 6.1678	 1.0423	-57.9439	-18.8985	-10.2295	37.6252	 
   653	 5.8658	 1.0047	-51.0687	-21.4373	-9.4160	38.7492	 
   654	 5.6799	 1.0368	-51.0687	-21.4373	-9.5668	38.0926	 
   655	 5.6761	 0.9628	-57.9439	-18.8985	-9.8681	37.4168	 
   656	 5.5212	 0.8700	-57.9439	-18.8985	-12.8461	34.4307	 
   657	 5.3276	 0.7540	-48.5379	-17.1616	-16.8350	32.6801	 
   658	 5.8463	 0.6347	-41.0612	-1.2181	-25.8884	29.9508	 
   659	 6.4464	 0.6358	-9.2229	13.4512	-43.5438	22.0015	 
   660	 6.3381	 0.7142	18.1151	29.7448	-68.1969	 5.6161	 
   661	 6.0322	 0.6027	18.1151	29.7448	-82.7206	-5.6261	 
   662	 5.3894	 0.5044	18.1151	29.7448	-87.6006	-9.8215	 
   663	 4.2898	 0.2759	41.3007	21.1834	-89.2918	-11.2586	 
   664	 3.6045	 0.0804	18.1151	29.7448	-90.4838	-11.8305	 
   665	 3.5270	 0.0340	18.1151	29.7448	-91.3358	-12.3405	 
   666	 3.4147	 0.0385	18.1151	29.7448	-92.0544	-12.4875	 
   667	 3.3412	 0.0661	18.1151	29.7448	-92.9709	-12.8238	 
   668	 3.9065	 0.1180	18.1151	29.7448	-91.7100	-11.7151	 
   669	 4.7389	 0.2582	18.1151	29.7448	-89.8123	-10.5791	 
   670	 4.9674	 0.3233	18.1151	29.7448	-90.5783	-10.8960	 
   671	 5.0448	 0.3697	18.1151	29.7448	-91.0258	-10.8807	 
   672	 5.2345	 0.4117	18.1151	29.7448	-91.0559	-10.7572	 
   673	 5.1997	 0.4625	18.1151	29.7448	-91.8304	-11.2208	 
   674	 5.1262	 0.4901	18.1151	29.7448	-92.5920	-11.4643	 
   675	 5.0913	 0.5409	18.1151	29.7448	-92.9320	-11.5262	 
   676	 5.0178	 0.5685	18.1151	29.7448	-93.1944	-11.5418	 
   677	 4.9790	 0.5453	18.1151	29.7448	-93.2245	-11.4182	 
   678	 5.1339	 0.6381	18.1151	29.7448	-92.2735	-10.4950	 
   679	 6.0399	 0.7507	18.1151	29.7448	-89.0461	-8.3507	 
   680	 6.2684	 0.8158	18.1151	29.7448	-89.2010	-8.4434	 
   681	 6.3110	 0.9130	18.1151	29.7448	-89.4204	-8.3624	 
   682	 6.4620	 0.9318	18.1151	29.7448	-89.0288	-8.0572	 
   683	 6.3846	 0.8854	18.1151	29.7448	-89.5624	-8.2350	 
   684	 6.2723	 0.8898	18.1151	29.7448	-90.2078	-8.4090	 
   685	 6.1987	 0.9175	18.1151	29.7448	-90.5821	-8.4207	 
   686	 6.0864	 0.9219	18.1151	29.7448	-90.8403	-8.3628	 
   687	 6.0477	 0.8987	18.1151	29.7448	-90.2851	-7.8182	 
   688	 6.0129	 0.9495	11.8309	17.5592	-84.9792	-4.0050	 
   689	 6.7718	 1.1173	 5.7710	 7.9146	-69.4621	 4.4340	 
   690	 6.9615	 1.1593	-28.5140	 1.8328	-48.6305	16.8329	 
   691	 6.9576	 1.0853	-51.7324	-4.1372	-39.3360	20.4853	 
   692	 7.2984	 1.1460	-46.0544	-12.4186	-31.6858	20.9589	 
   693	 7.2557	 1.0488	-55.8520	-14.4608	-15.7990	27.4247	 
   694	 6.7988	 0.9185	-60.0143	-22.9694	-12.5761	28.8584	 
   695	 6.4930	 0.8070	-62.0287	-26.7236	-13.1698	28.9277	 
   696	 6.2645	 0.7418	-67.9530	-24.5360	-13.3247	28.8350	 
   697	 5.9586	 0.6303	-67.9530	-24.5360	-13.3290	28.7616	 
   698	 5.6179	 0.5696	-62.0287	-26.7236	-13.6216	28.8696	 
   699	 5.9199	 0.6071	-55.8848	-28.9923	-14.2499	28.3520	 
   700	 7.0505	 0.7109	-62.0287	-26.7236	-13.5271	27.9352	 
   701	 7.0427	 0.5629	-57.9439	-18.8985	-17.9202	27.5707	 
   702	 6.8064	 0.3498	-48.5379	-17.1616	-25.5745	28.9352	 
   703	 6.7987	 0.2018	-31.6261	-4.7021	-32.8547	28.4000	 
   704	 6.4153	 0.0439	-9.2229	13.4512	-48.7845	21.8376	 
   705	 5.9275	 0.0384	-1.4866	36.9829	-70.9375	 6.6656	 
   706	 5.2887	 0.0141	18.1151	29.7448	-84.2431	-2.2901	 
   707	 4.7582	-0.0886	18.1151	29.7448	-89.1188	-6.4121	 
   708	 4.2743	-0.0201	18.1151	29.7448	-87.1008	-5.7704	 
   709	 4.0110	-0.0345	-1.4866	36.9829	-87.6647	-7.0990	 
   710	 4.6924	 0.0870	31.4326	10.3211	-86.3093	-6.9248	 
   711	 4.7699	 0.1334	18.1151	29.7448	-86.8516	-7.8866	 
   712	 4.5066	 0.1190	18.1151	29.7448	-87.6218	-8.2768	 
   713	 4.4718	 0.1698	31.4326	10.3211	-87.2647	-7.9214	 
   714	 4.3982	 0.1975	18.1151	29.7448	-87.3034	-7.9446	 
   715	 4.2085	 0.1555	18.1151	29.7448	-87.8714	-8.0722	 
   716	 4.0226	 0.1875	18.1151	29.7448	-88.2027	-7.9874	 
   717	 4.0226	 0.1875	-1.4866	36.9829	-88.2284	-7.7905	 
   718	 3.8368	 0.2196	-1.4866	36.9829	-88.4091	-7.6863	 
   719	 3.5735	 0.2052	31.4326	10.3211	-88.8566	-7.6710	 
   720	 4.1775	 0.2803	31.4326	10.3211	-86.0682	-6.0018	 
   721	 4.5183	 0.3410	18.1151	29.7448	-85.1689	-5.9590	 
   722	 4.4099	 0.4194	-1.4866	36.9829	-86.1973	-6.2915	 
   723	 4.5260	 0.4890	31.4326	10.3211	-85.9520	-5.9323	 
   724	 4.5648	 0.5122	-1.4866	36.9829	-85.9950	-6.0288	 
   725	 4.4912	 0.5398	-1.4866	36.9829	-86.7610	-6.3457	 
   726	 4.3789	 0.5442	31.4326	10.3211	-87.0621	-6.3844	 
   727	 4.3054	 0.5719	11.8309	17.5592	-87.2729	-6.1567	 
   728	 4.2667	 0.5487	11.8309	17.5592	-87.3891	-6.2262	 
   729	 4.1583	 0.6271	-1.4866	36.9829	-87.7548	-6.0912	 
   730	 4.8397	 0.7485	18.1151	29.7448	-84.0843	-4.0356	 
   731	 5.1417	 0.7861	-1.4866	36.9829	-83.7530	-4.1204	 
   732	 5.0682	 0.8137	-1.4866	36.9829	-84.2048	-4.1785	 
   733	 5.1456	 0.8601	-1.4866	36.9829	-83.8389	-3.6763	 
   734	 5.0721	 0.8877	-1.4866	36.9829	-83.8045	-3.7265	 
   735	 4.9210	 0.8689	11.8309	17.5592	-84.4887	-3.9237	 
   736	 4.7352	 0.9009	11.8309	17.5592	-84.7425	-3.7925	 
   737	 4.6578	 0.8546	-1.4866	36.9829	-84.4671	-3.5568	 
   738	 4.4371	 0.9374	11.8309	17.5592	-84.6091	-3.4295	 
   739	 4.2435	 0.8215	11.8309	17.5592	-85.0265	-3.5377	 
   740	 4.3906	 0.7662	11.8309	17.5592	-84.1916	-2.6840	 
   741	 5.0372	 0.9385	-1.4866	36.9829	-80.9212	-1.0803	 
   742	 5.2308	 1.0544	11.8309	17.5592	-81.2956	-1.0921	 
   743	 5.6103	 1.1384	-5.1377	23.8250	-75.9639	 2.5242	 
   744	 6.2840	 1.1118	-25.4534	 9.3989	-55.4597	12.5327	 
   745	 6.4737	 1.1538	-53.7342	-9.5828	-34.3458	15.7563	 
   746	 6.1639	 0.9683	-46.0544	-12.4186	-24.3067	20.6331	 
   747	 6.0477	 0.8987	-46.0544	-12.4186	-18.8630	24.8827	 
   748	 5.8541	 0.7827	-57.9439	-18.8985	-16.9521	27.5131	 
   749	 5.5908	 0.7684	-66.1581	-20.7008	-18.7032	28.2347	 
   750	 5.3276	 0.7540	-66.1581	-20.7008	-19.4558	30.0494	 
   751	 5.3624	 0.7032	-64.4535	-16.4948	-16.9340	32.2668	 
   752	 6.1832	 0.6215	-61.0483	-6.8820	-13.4614	34.1332	 
   753	 5.9508	 0.4823	-51.7324	-4.1372	-11.5465	35.5626	 
   754	 5.7572	 0.3664	-51.7324	-4.1372	-11.7444	35.3733	 
   755	 5.7494	 0.2184	-43.5407	-7.1620	-12.2949	36.8135	 
   756	 5.1764	 0.0185	-48.1157	 9.0709	-21.2058	36.5056	 
   757	 4.4523	-0.2001	-28.5140	 1.8328	-34.8934	32.4888	 
   758	 4.0729	-0.2841	-22.6076	18.3936	-46.1198	29.0251	 
   759	 3.9915	-0.4044	-20.1315	29.3616	-58.8526	22.8190	 
   760	 3.6934	-0.3680	11.8309	17.5592	-70.5577	13.1224	 
   761	 3.7709	-0.3216	18.1151	29.7448	-83.7772	 4.3598	 
   762	 4.4949	-0.1030	41.3007	21.1834	-90.5549	-0.9715	 
   763	 4.7582	-0.0886	24.0946	46.2786	-93.1499	-3.1619	 
   764	 4.7273	 0.0362	24.0946	46.2786	-93.4770	-3.6409	 
   765	 4.8434	 0.1058	18.1151	29.7448	-92.5389	-3.5749	 
   766	 4.6963	 0.1610	18.1151	29.7448	-93.2146	-4.2625	 
   767	 4.5066	 0.1190	18.1151	29.7448	-94.0279	-4.7494	 
   768	 4.2859	 0.2019	18.1151	29.7448	-94.3205	-4.6413	 
   769	 4.0226	 0.1875	18.1151	29.7448	-94.1870	-4.2783	 
   770	 3.7245	 0.2240	 0.9090	54.8401	-94.2085	-4.0080	 
   771	 3.4613	 0.2096	 0.9090	54.8401	-94.1568	-3.7647	 
   772	 3.8407	 0.2936	 0.9090	54.8401	-92.2289	-2.1151	 
   773	 4.5609	 0.4382	18.1151	29.7448	-89.6040	-0.6854	 
   774	 4.6035	 0.5354	 0.9090	54.8401	-89.6083	-0.7588	 
   775	 4.7158	 0.5310	18.1151	29.7448	-89.5136	-0.4190	 
   776	 4.8319	 0.6005	18.1151	29.7448	-88.8810	 0.1721	 
   777	 4.7584	 0.6282	18.1151	29.7448	-89.2553	 0.1604	 
   778	 4.6461	 0.6326	18.1151	29.7448	-89.6296	 0.1487	 
   779	 4.4642	 0.7386	18.1151	29.7448	-89.8792	 0.3533	 
   780	 4.4990	 0.6878	18.1151	29.7448	-89.9523	 0.3803	 
   781	 4.3132	 0.7198	18.1151	29.7448	-90.4385	 0.3724	 
   782	 4.6152	 0.7574	18.1151	29.7448	-89.4186	 1.1953	 
   783	 5.2231	 0.9064	18.1151	29.7448	-87.5640	 2.2347	 
   784	 5.2618	 0.9296	18.1151	29.7448	-88.1449	 1.8869	 
   785	 5.3005	 0.9528	18.1151	29.7448	-88.2782	 2.1610	 
   786	 5.4167	 1.0224	18.1151	29.7448	-87.8522	 2.4161	 
   787	 5.3779	 0.9992	18.1151	29.7448	-88.1964	 2.2808	 
   788	 5.2308	 1.0544	18.1151	29.7448	-88.3470	 2.2614	 
   789	 5.1573	 1.0821	18.1151	29.7448	-87.6843	 2.7289	 
   790	 5.2347	 1.1284	-1.4866	36.9829	-84.7410	 4.4908	 
   791	 5.0837	 1.1097	-20.1315	29.3616	-70.0673	12.5665	 
   792	 5.1921	 1.0312	-25.4534	 9.3989	-48.1864	21.8417	 
   793	 6.0942	 1.0699	-53.7342	-9.5828	-30.9156	20.7120	 
   794	 6.6595	 1.1217	-59.4122	-1.3014	-22.9427	20.9540	 
   795	 6.6556	 1.0478	-46.0544	-12.4186	-19.9604	24.0135	 
   796	 6.6130	 0.9506	-53.7342	-9.5828	-18.4153	26.1417	 
   797	 6.3846	 0.8854	-53.7342	-9.5828	-17.1416	26.8334	 
   798	 5.9742	 0.9263	-53.7342	-9.5828	-16.5477	27.4013	 
   799	 5.7070	 0.8380	-48.5379	-17.1616	-16.3197	27.4670	 
   800	 5.4398	 0.7496	-53.7342	-9.5828	-16.2896	27.3434	 
   801	 5.1727	 0.6613	-53.7342	-9.5828	-16.4101	27.2005	 
   802	 4.9403	 0.5221	-53.7342	-9.5828	-16.5435	26.8375	 
   803	 5.2075	 0.6105	-48.5379	-17.1616	-16.9394	26.4589	 
   804	 5.8812	 0.5839	-57.9439	-18.8985	-18.1961	24.7864	 
   805	 5.2655	 0.2869	-57.9439	-18.8985	-25.2656	24.0233	 
   806	 4.6846	-0.0610	-49.8381	 2.0228	-32.8976	28.9406	 
   807	 4.5646	-0.2046	-34.6758	22.8499	-44.0201	29.1493	 
   808	 4.3361	-0.2697	-9.2229	13.4512	-52.7592	27.3160	 
   809	 4.1464	-0.3117	11.8309	17.5592	-61.5763	22.2505	 
   810	 3.9993	-0.2564	-1.4866	36.9829	-71.5298	15.0182	 
   811	 3.6625	-0.2432	-1.4866	36.9829	-81.3585	 7.3650	 
   812	 3.3992	-0.2575	18.1151	29.7448	-87.0863	 2.7330	 
   813	 3.4418	-0.1603	18.1151	29.7448	-89.4144	 0.6315	 
   814	 4.2781	 0.0539	18.1151	29.7448	-87.7707	 1.2614	 
   815	 4.5840	 0.1654	18.1151	29.7448	-88.3732	 0.5468	 
   816	 4.5840	 0.1654	18.1151	29.7448	-89.1822	 0.1334	 
   817	 4.6654	 0.2858	18.1151	29.7448	-89.3672	 0.1642	 
   818	 4.6654	 0.2858	-1.4866	36.9829	-90.2106	-0.1991	 
   819	 4.5570	 0.3642	-1.4866	36.9829	-91.1916	-0.3616	 
   820	 4.4486	 0.4426	18.1151	29.7448	-91.8284	-0.3888	 
   821	 4.4099	 0.4194	18.1151	29.7448	-92.2802	-0.4469	 
   822	 4.3712	 0.3962	18.1151	29.7448	-92.8051	-0.4780	 
   823	 4.2628	 0.4747	 0.9090	54.8401	-93.3258	-0.4356	 
   824	 4.9829	 0.6193	 0.9090	54.8401	-90.8772	 1.1716	 
   825	 5.3276	 0.7540	 0.9090	54.8401	-90.5847	 1.0636	 
   826	 5.2927	 0.8048	18.1151	29.7448	-91.2989	 0.9900	 
   827	 5.4089	 0.8744	18.1151	29.7448	-91.0579	 1.2758	 
   828	 5.3741	 0.9252	 0.9090	54.8401	-91.3290	 1.1135	 
   829	 5.2618	 0.9296	18.1151	29.7448	-92.0132	 0.9164	 
   830	 5.1495	 0.9341	 0.9090	54.8401	-92.4607	 0.9317	 
   831	 5.0759	 0.9617	 0.9090	54.8401	-92.5682	 1.0089	 
   832	 4.8901	 0.9937	18.1151	29.7448	-92.7532	 1.0397	 
   833	 4.7430	 1.0489	18.1151	29.7448	-93.2007	 1.0550	 
   834	 5.4283	 1.2444	18.1151	29.7448	-90.5284	 2.6546	 
   835	 5.9936	 1.2963	18.1151	29.7448	-89.6463	 3.0411	 
   836	 6.0323	 1.3195	 0.9090	54.8401	-89.6850	 3.0179	 
   837	 6.1872	 1.4122	18.1151	29.7448	-89.0524	 3.6089	 
   838	 6.2260	 1.4354	18.1151	29.7448	-88.7340	 3.9411	 
   839	 6.2260	 1.4354	-1.4866	36.9829	-87.6022	 4.7602	 
   840	 6.2995	 1.4078	-1.4866	36.9829	-76.2291	10.7186	 
   841	 6.1872	 1.4122	-22.6076	18.3936	-57.5972	17.4826	 
   842	 5.9162	 1.2499	-59.4122	-1.3014	-42.9252	16.6379	 
   843	 5.6877	 1.1847	-59.4122	-1.3014	-27.5725	20.3771	 
   844	 5.7574	 1.0831	-53.7342	-9.5828	-17.4516	25.3736	 
   845	 6.3227	 1.1350	-53.7342	-9.5828	-14.5510	28.9504	 
   846	 6.5511	 1.2002	-49.8381	 2.0228	-9.9678	33.1805	 
   847	 6.1795	 1.2642	-43.5407	-7.1620	-7.3169	35.6876	 
   848	 6.1059	 1.2919	-43.5407	-7.1620	-7.2782	35.7107	 
   849	 5.9510	 1.1991	-43.5407	-7.1620	-6.6113	35.6144	 
   850	 5.4593	 1.1196	-58.0299	 5.0477	-6.7318	35.4715	 
   851	 5.1534	 1.0081	-49.8381	 2.0228	-6.3704	35.2631	 
   852	 4.8901	 0.9937	-49.8381	 2.0228	-6.6028	35.1240	 
   853	 4.5107	 0.9098	-43.5407	-7.1620	-6.8782	34.8883	 
   854	 4.3597	 0.8910	-51.7324	-4.1372	-6.9470	34.9887	 
   855	 5.3044	 1.0268	-53.7342	-9.5828	-9.4557	33.6286	 
   856	 5.6373	 0.9396	-51.7324	-4.1372	-23.4312	31.7048	 
   857	 5.1804	 0.8093	-25.4534	 9.3989	-41.3822	30.7991	 
   858	 5.2231	 0.9064	-5.1377	23.8250	-52.4533	29.3396	 
   859	 4.9172	 0.7949	18.1151	29.7448	-71.9208	17.8989	 
   860	 4.4719	 0.8866	24.0946	46.2786	-86.6937	 8.1356	 
   861	 4.1699	 0.8491	41.3007	21.1834	-90.5452	 4.9098	 
   862	 3.8292	 0.7883	24.0946	46.2786	-92.4387	 3.2101	 
   863	 3.4149	 0.7552	18.1151	29.7448	-94.0008	 2.0626	 
   864	 3.2252	 0.7133	18.1151	29.7448	-94.9733	 1.4097	 
   865	 3.9841	 0.8811	18.1151	29.7448	-92.2022	 2.7854	 
   866	 4.2900	 0.9926	24.0946	46.2786	-91.8451	 2.5036	 
   867	 4.4062	 1.0622	24.0946	46.2786	-92.2066	 2.0748	 
   868	 4.5610	 1.1550	18.1151	29.7448	-91.9054	 2.1135	 
   869	 4.6424	 1.2753	 0.9090	54.8401	-91.9184	 1.8934	 
   870	 4.6463	 1.3493	18.1151	29.7448	-92.3788	 1.6886	 
   871	 4.5379	 1.4278	 0.9090	54.8401	-92.7057	 1.8468	 
   872	 4.5379	 1.4278	 0.9090	54.8401	-92.8133	 1.9240	 
   873	 4.4334	 1.5802	18.1151	29.7448	-92.8219	 1.7773	 
   874	 4.2824	 1.5614	 0.9090	54.8401	-93.2049	 1.6188	 
   875	 4.6618	 1.6453	18.1151	29.7448	-92.0602	 2.6580	 
   876	 5.4943	 1.7856	18.1151	29.7448	-89.5687	 3.7246	 
   877	 5.5756	 1.9059	 0.9090	54.8401	-89.9904	 3.5430	 
   878	 5.7266	 1.9247	 0.9090	54.8401	-90.0937	 3.6935	 
   879	 5.7731	 2.0959	 0.9090	54.8401	-89.7451	 3.9022	 
   880	 5.7344	 2.0727	 0.9090	54.8401	-90.2400	 3.7476	 
   881	 5.5873	 2.1279	18.1151	29.7448	-90.5411	 3.7088	 
   882	 5.5525	 2.1787	18.1151	29.7448	-90.6401	 3.9328	 
   883	 5.4750	 2.1323	18.1151	29.7448	-90.5970	 4.0293	 
   884	 5.3627	 2.1368	18.1151	29.7448	-90.8208	 4.0370	 
   885	 5.2505	 2.1412	 0.9090	54.8401	-91.1176	 4.0716	 
   886	 5.8583	 2.2903	18.1151	29.7448	-88.7379	 5.7793	 
   887	 6.3501	 2.3698	 0.9090	54.8401	-87.5847	 6.3280	 
   888	 6.3888	 2.3929	 0.9090	54.8401	-87.9117	 6.4862	 
   889	 6.4236	 2.3421	18.1151	29.7448	-85.8117	 7.8849	 
   890	 6.4197	 2.2681	-1.4866	36.9829	-76.8570	12.1125	 
   891	 6.4236	 2.3421	-18.4552	43.2487	-65.8199	16.1708	 
   892	 6.3036	 2.1986	-46.6642	17.2311	-47.0898	18.8879	 
   893	 6.3423	 2.2218	-41.0612	-1.2181	-33.6697	18.9926	 
   894	 6.1913	 2.2030	-51.7324	-4.1372	-20.2311	25.7627	 
   895	 5.5795	 1.9799	-59.4122	-1.3014	-19.8264	26.9252	 
   896	 5.0878	 1.9004	-51.7324	-4.1372	-19.8953	27.0256	 
   897	 6.1448	 2.0318	-51.7324	-4.1372	-19.8050	26.6549	 
   898	 6.5281	 2.1897	-51.7324	-4.1372	-19.3748	26.3461	 
   899	 6.2610	 2.1014	-43.5407	-7.1620	-19.7062	25.7938	 
   900	 6.1100	 2.0826	-49.8381	 2.0228	-20.3775	25.1795	 
   901	 5.9590	 2.0638	-58.0299	 5.0477	-20.5497	24.7933	 
   902	 5.4672	 1.9843	-51.7324	-4.1372	-21.2898	24.2795	 
   903	 5.0142	 1.9280	-51.7324	-4.1372	-22.9035	23.5259	 
   904	 4.6309	 1.7701	-53.7342	-9.5828	-25.2271	22.7721	 
   905	 4.1662	 1.4918	-51.7324	-4.1372	-31.9130	25.3534	 
   906	 3.4848	 1.3704	-46.6642	17.2311	-38.8268	28.5061	 
   907	 3.7442	 1.3107	-5.1377	23.8250	-48.9765	30.6422	 
   908	 4.0849	 1.3715	18.1151	29.7448	-66.9074	21.8201	 
   909	 3.8216	 1.3571	18.1151	29.7448	-81.9170	11.8443	 
   910	 3.3725	 1.3748	 0.9090	54.8401	-86.9691	 7.8999	 
   911	 2.9969	 1.3649	 0.9090	54.8401	-87.9978	 6.2931	 
   912	 2.5478	 1.3826	 0.9090	54.8401	-89.1210	 4.9837	 
   913	 2.1335	 1.3495	 0.9090	54.8401	-90.5066	 4.2958	 
   914	 1.7580	 1.3395	 0.9090	54.8401	-91.2381	 3.9287	 
   915	 1.4947	 1.3252	 0.9090	54.8401	-92.1460	 3.7392	 
   916	 1.0804	 1.2921	 0.9090	54.8401	-93.9619	 3.3602	 
   917	 0.7784	 1.2545	 0.9090	54.8401	-95.6959	 3.1009	 
   918	 1.1966	 1.3616	 0.9090	54.8401	-94.7621	 3.7306	 
   919	 1.8819	 1.5571	 0.9090	54.8401	-92.6837	 4.7624	 
   920	 1.9594	 1.6035	24.0946	46.2786	-93.3033	 4.3914	 
   921	 2.0755	 1.6730	 0.9090	54.8401	-93.4109	 4.4686	 
   922	 2.1181	 1.7702	 0.9090	54.8401	-93.1398	 4.6309	 
   923	 2.0407	 1.7239	 0.9090	54.8401	-93.7939	 4.3102	 
   924	 1.8200	 1.8067	41.3007	21.1834	-94.4824	 4.0397	 
   925	 1.7077	 1.8111	 0.9090	54.8401	-94.8610	 3.9546	 
   926	 1.4484	 1.8708	 0.9090	54.8401	-95.2741	 3.9197	 
   927	 1.2199	 1.8056	 0.9090	54.8401	-95.9238	 3.6723	 
   928	 1.4871	 1.8940	 0.9090	54.8401	-94.8566	 4.6651	 
   929	 2.3583	 2.0574	 0.9090	54.8401	-92.0811	 6.1142	 
   930	 2.5519	 2.1733	 0.9090	54.8401	-91.9391	 5.9868	 
   931	 2.5131	 2.1501	 0.9090	54.8401	-91.9649	 6.1837	 
   932	 2.3660	 2.2054	 0.9090	54.8401	-91.6808	 6.5661	 
   933	 2.3273	 2.1822	 0.9090	54.8401	-91.8401	 6.4000	 
   934	 2.1454	 2.2882	 0.9090	54.8401	-91.9863	 6.4540	 
   935	 2.1454	 2.2882	 0.9090	54.8401	-91.7152	 6.6163	 
   936	 2.0331	 2.2926	 0.9090	54.8401	-91.5861	 6.9060	 
   937	 1.8085	 2.3015	18.1151	29.7448	-91.7711	 6.9368	 
   938	 1.9208	 2.2970	 0.9090	54.8401	-91.2977	 7.3617	 
   939	 2.8694	 2.5068	18.1151	29.7448	-87.8294	 9.1547	 
   940	 3.1714	 2.5444	18.1151	29.7448	-87.2658	 9.2089	 
   941	 3.1753	 2.6184	 0.9090	54.8401	-87.2872	 9.4792	 
   942	 3.3999	 2.6095	 0.9090	54.8401	-86.7020	 9.9004	 
   943	 3.2489	 2.5908	 0.9090	54.8401	-86.9301	 9.8346	 
   944	 3.0592	 2.5488	 0.9090	54.8401	-87.5324	 9.7572	 
   945	 2.9856	 2.5764	 0.9090	54.8401	-87.7175	 9.7880	 
   946	 2.8694	 2.5068	18.1151	29.7448	-87.9369	 9.8691	 
   947	 2.7145	 2.4141	 0.9090	54.8401	-88.2338	 9.9037	 
   948	 2.5635	 2.3953	18.1151	29.7448	-88.6425	 9.9422	 
   949	 3.2411	 2.4428	18.1151	29.7448	-86.4350	11.2636	 
   950	 3.5857	 2.5775	18.1151	29.7448	-85.2172	11.6386	 
   951	 3.6206	 2.5267	18.1151	29.7448	-85.5529	11.6501	 
   952	 3.6593	 2.5499	 0.9090	54.8401	-85.4925	12.0401	 
   953	 3.6593	 2.5499	 0.9090	54.8401	-85.3764	12.1097	 
   954	 3.5083	 2.5311	 0.9090	54.8401	-85.8282	12.0516	 
   955	 3.3185	 2.4892	18.1151	29.7448	-86.3100	12.1171	 
   956	 3.1327	 2.5212	18.1151	29.7448	-86.6844	12.1054	 
   957	 3.0553	 2.4748	 0.9090	54.8401	-87.2093	12.0743	 
   958	 2.8655	 2.4328	18.1151	29.7448	-87.7472	11.8231	 
   959	 3.0165	 2.4516	18.1151	29.7448	-87.9580	12.0509	 
   960	 4.0736	 2.5830	18.1151	29.7448	-85.8108	12.9823	 
   961	 4.3756	 2.6205	 0.9090	54.8401	-85.9614	12.9629	 
   962	 4.4878	 2.6161	18.1151	29.7448	-86.3013	12.9010	 
   963	 4.6427	 2.7089	 0.9090	54.8401	-86.4002	13.1249	 
   964	 4.6427	 2.7089	 0.9090	54.8401	-86.7789	13.0399	 
   965	 4.5266	 2.6393	 0.9090	54.8401	-87.4673	12.7693	 
   966	 4.4143	 2.6437	 0.9090	54.8401	-88.1041	12.7421	 
   967	 4.3756	 2.6205	 0.9090	54.8401	-88.6764	12.5411	 
   968	 4.2981	 2.5742	18.1151	29.7448	-89.4424	12.2242	 
   969	 4.2246	 2.6018	 0.9090	54.8401	-90.1782	11.7837	 
   970	 4.4878	 2.6161	 0.9090	54.8401	-90.3933	11.9381	 
   971	 5.4326	 2.7519	18.1151	29.7448	-88.6721	12.6145	 
   972	 5.5875	 2.8447	-18.6927	62.0781	-89.2487	12.3401	 
   973	 5.5139	 2.8723	18.1151	29.7448	-89.9630	12.2665	 
   974	 5.6649	 2.8911	-18.6927	62.0781	-90.1006	12.4673	 
   975	 5.6997	 2.8403	-18.6927	62.0781	-90.7891	12.1967	 
   976	 5.4016	 2.8767	-18.6927	62.0781	-91.8132	11.9376	 
   977	 5.3203	 2.7563	18.1151	29.7448	-92.6049	11.8177	 
   978	 5.1693	 2.7376	-18.6927	62.0781	-93.3579	11.7209	 
   979	 5.0183	 2.7188	-1.4866	36.9829	-94.1583	11.4542	 
   980	 4.9408	 2.6724	-18.6927	62.0781	-94.9973	11.1643	 
   981	 5.6959	 2.7663	-1.4866	36.9829	-92.8286	12.4625	 
   982	 5.9243	 2.8314	18.1151	29.7448	-92.6952	12.1884	 
   983	 5.7733	 2.8126	-1.4866	36.9829	-93.4224	11.8946	 
   984	 5.8081	 2.7618	-18.6927	62.0781	-93.3708	12.1379	 
   985	 5.7307	 2.7155	-1.4866	36.9829	-93.5988	12.0722	 
   986	 5.4287	 2.6779	-1.4866	36.9829	-94.2916	11.7283	 
   987	 5.2390	 2.6360	 0.9090	54.8401	-94.8252	11.5505	 
   988	 5.0880	 2.6172	-18.6927	62.0781	-95.2770	11.4924	 
   989	 4.9331	 2.5244	-18.6927	62.0781	-95.6599	11.3340	 
   990	 4.7821	 2.5057	 0.9090	54.8401	-96.1204	11.1291	 
   991	 5.3861	 2.5807	-1.4866	36.9829	-94.2484	12.4620	 
   992	 5.8391	 2.6370	-1.4866	36.9829	-93.1469	12.7675	 
   993	 5.8391	 2.6370	 0.9090	54.8401	-93.6848	12.5163	 
   994	 5.8042	 2.6878	-18.6927	62.0781	-93.7192	12.5665	 
   995	 5.8778	 2.6602	-18.6927	62.0781	-93.6417	12.6128	 
   996	 5.6920	 2.6923	-18.6927	62.0781	-94.2571	12.3153	 
   997	 5.4635	 2.6271	-1.4866	36.9829	-94.8681	12.0911	 
   998	 5.3473	 2.5575	 0.9090	54.8401	-95.0617	11.9752	 
   999	 5.1615	 2.5896	 0.9090	54.8401	-95.3629	11.9365	 
  1000	 4.9718	 2.5476	-18.6927	62.0781	-95.8234	11.7317	 
  1001	 5.3822	 2.5067	-1.4866	36.9829	-95.0272	12.5622	 
  1002	 6.0249	 2.6050	18.1151	29.7448	-93.0306	13.4742	 
  1003	 5.8817	 2.7342	18.1151	29.7448	-93.6847	13.1535	 
  1004	 5.9862	 2.5818	-1.4866	36.9829	-93.8008	13.0839	 
  1005	 5.9165	 2.6834	-1.4866	36.9829	-93.5642	13.2964	 
  1006	 5.8352	 2.5630	-1.4866	36.9829	-94.0676	12.9950	 
  1007	 5.5332	 2.5255	-18.6927	62.0781	-94.7518	12.7978	 
  1008	 5.3822	 2.5067	-18.6927	62.0781	-95.2036	12.7398	 
  1009	 5.2660	 2.4372	-18.6927	62.0781	-95.5392	12.7512	 
  1010	 5.0763	 2.3952	-1.4866	36.9829	-95.9609	12.5696	 
  1011	 5.5293	 2.4515	-1.4866	36.9829	-94.7043	13.6049	 
  1012	 6.0597	 2.5542	-18.6927	62.0781	-93.1811	14.0920	 
  1013	 6.0210	 2.5310	-18.6927	62.0781	-93.7921	13.8678	 
  1014	 5.9823	 2.5078	-18.6927	62.0781	-93.9384	13.9218	 
  1015	 6.0210	 2.5310	 0.9090	54.8401	-93.8179	14.0648	 
  1016	 5.8313	 2.4890	-1.4866	36.9829	-94.4289	13.8406	 
  1017	 5.6764	 2.3963	-1.4866	36.9829	-94.9668	13.5894	 
  1018	 5.4518	 2.4051	-1.4866	36.9829	-95.2723	13.4773	 
  1019	 5.3357	 2.3356	-18.6927	62.0781	-95.7198	13.4926	 
  1020	 5.1460	 2.2936	-1.4866	36.9829	-96.2490	13.3882	 
  1021	 5.5990	 2.3499	-18.6927	62.0781	-95.0355	14.3270	 
  1022	 6.2765	 2.3974	-18.6927	62.0781	-93.3961	14.8836	 
  1023	 6.2417	 2.4482	-18.6927	62.0781	-93.8565	14.6788	 
  1024	 6.1642	 2.4018	-18.6927	62.0781	-94.1146	14.7366	 
  1025	 6.2030	 2.4250	18.1151	29.7448	-93.8866	14.8023	 
  1026	 6.1255	 2.3786	-18.6927	62.0781	-94.3857	14.5743	 
  1027	 5.8274	 2.4151	-1.4866	36.9829	-95.0312	14.4003	 
  1028	 5.6725	 2.3223	-18.6927	62.0781	-95.3754	14.2651	 
  1029	 5.5951	 2.2759	-18.6927	62.0781	-95.7153	14.2032	 
  1030	 5.4053	 2.2339	-18.6927	62.0781	-96.1026	13.9713	 
  1031	 5.4441	 2.2571	-1.4866	36.9829	-95.9821	14.1143	 
  1032	 6.3849	 2.3189	-18.6927	62.0781	-93.4046	15.3740	 
  1033	 6.4624	 2.3653	 0.9090	54.8401	-93.4993	15.0342	 
  1034	 6.3114	 2.3466	-18.6927	62.0781	-94.0329	14.8563	 
  1035	 6.4197	 2.2681	-1.4866	36.9829	-93.7574	15.0920	 
  1036	 6.2339	 2.3002	 0.9090	54.8401	-93.9597	14.8293	 
  1037	 5.9667	 2.2118	-18.6927	62.0781	-94.4632	14.5280	 
  1038	 5.8118	 2.1191	 0.9090	54.8401	-94.7730	14.3425	 
  1039	 5.6221	 2.0771	-1.4866	36.9829	-94.8677	14.0026	 
  1040	 5.6570	 2.0263	-1.4866	36.9829	-94.3904	12.5894	 
  1041	 5.6414	 1.7303	-18.4552	43.2487	-89.6063	10.0732	 
  1042	 7.6470	 2.0715	-20.1315	29.3616	-63.1791	10.2479	 
  1043	 9.4281	 2.4215	-34.6758	22.8499	-58.3933	-6.2129	 
  1044	10.3689	 2.4833	-34.6758	22.8499	-67.0900	-11.1355	 
  1045	11.2633	 2.3740	-34.6758	22.8499	-66.1778	-11.5098	 
  1046	11.0928	 1.9852	-38.6806	 5.5869	-71.5399	-16.2768	 
  1047	 8.7696	 1.3105	-67.9235	-4.3433	-69.3889	-18.4580	 
  1048	 6.8144	 1.2145	-92.1519	-27.4826	-70.7448	-21.1809	 
  1049	 6.6402	 1.4685	-83.1268	-14.4350	-37.2388	 7.2288	 
  1050	 5.6607	 1.3835	-67.9235	-4.3433	11.4632	52.5924	 
  1051	 4.5959	 1.1042	-69.2368	-9.5184	 8.1675	53.7344	 
  1052	 4.6152	 0.7574	-46.6642	17.2311	-18.9581	45.4963	 
  1053	 4.4408	 0.2946	-20.1315	29.3616	-46.4980	31.4887	 
  1054	 4.1659	 0.0583	-20.1315	29.3616	-62.2789	15.3881	 
  1055	 4.4369	 0.2206	-20.1315	29.3616	-79.3692	-7.7258	 
  1056	 4.3828	 0.6182	-20.1315	29.3616	-84.8221	-15.3080	 
  1057	 4.8204	 1.0953	-20.1315	29.3616	-82.8949	-17.4815	 
  1058	 6.1718	 1.8330	-22.6076	18.3936	-73.5584	-19.4672	 
  1059	 6.6906	 1.7137	-34.6758	22.8499	-69.4527	-14.4611	 
  1060	 6.9963	 1.1085	-45.7201	26.9281	-72.6840	-14.1301	 
  1061	 7.4608	 0.6700	-34.6758	22.8499	-80.4250	-16.7817	 
  1062	 8.3281	 0.7594	-34.6758	22.8499	-75.3734	-15.3860	 
  1063	 8.6301	 0.7970	-22.6076	18.3936	-72.4818	-14.5046	 
  1064	 8.6689	 0.8202	-20.1315	29.3616	-70.4596	-14.4267	 
  1065	 8.8664	 1.0101	-33.5163	34.3040	-68.2394	-14.7967	 
  1066	 8.7619	 1.1625	-33.5163	34.3040	-69.3024	-15.7161	 
  1067	 8.7270	 1.2133	-22.6076	18.3936	-70.7955	-16.3268	 
  1068	 8.7696	 1.3105	-33.5163	34.3040	-71.1398	-16.4620	 
  1069	 8.8549	 1.5049	-22.6076	18.3936	-71.5787	-16.9372	 
  1070	 8.9671	 1.5005	-34.6758	22.8499	-72.4135	-17.1537	 
  1071	 9.9506	 1.6595	-22.6076	18.3936	-65.1071	-14.9038	 
  1072	10.6321	 1.7809	-22.6076	18.3936	-64.1003	-14.9382	 
  1073	10.7134	 1.9013	-22.6076	18.3936	-66.1184	-15.5799	 
  1074	11.1238	 1.8604	-22.6076	18.3936	-65.7741	-15.4447	 
  1075	11.2400	 1.9300	-22.6076	18.3936	-66.2819	-15.8194	 
  1076	11.2400	 1.9300	-22.6076	18.3936	-68.0332	-16.3722	 
  1077	11.2012	 1.9068	-34.6758	22.8499	-69.0917	-16.5811	 
  1078	11.2012	 1.9068	-22.6076	18.3936	-69.5779	-16.5890	 
  1079	11.1238	 1.8604	-34.6758	22.8499	-70.1115	-16.7668	 
  1080	11.1625	 1.8836	-22.6076	18.3936	-70.2491	-16.5660	 
  1081	11.9562	 2.0006	-22.6076	18.3936	-63.3601	-14.4244	 
  1082	12.2234	 2.0890	-22.6076	18.3936	-64.5564	-15.0697	 
  1083	12.2621	 2.1122	-33.5163	34.3040	-66.0366	-15.4602	 
  1084	12.4867	 2.1033	-22.6076	18.3936	-65.2406	-15.2669	 
  1085	12.4867	 2.1033	-22.6076	18.3936	-66.4927	-15.5916	 
  1086	12.4131	 2.1309	-22.6076	18.3936	-68.0547	-16.1019	 
  1087	12.3396	 2.1586	-22.6076	18.3936	-68.9152	-16.1215	 
  1088	12.3357	 2.0846	-22.6076	18.3936	-69.3670	-16.1796	 
  1089	12.1072	 2.0194	-34.6758	22.8499	-70.9461	-16.3461	 
  1090	12.4828	 2.0293	-34.6758	22.8499	-68.1147	-15.2176	 
  1091	13.2378	 2.1232	-22.6076	18.3936	-63.7947	-14.1890	 
  1092	13.4236	 2.0911	-22.6076	18.3936	-66.2258	-14.8656	 
  1093	13.4236	 2.0911	-22.6076	18.3936	-66.2258	-14.8656	 
  1094	13.6173	 2.2071	-22.6076	18.3936	-67.4434	-14.6034	 
  1095	14.1399	 2.1618	-34.6758	22.8499	-70.3392	-14.9210	 
  1096	13.9385	 1.8978	-36.4976	13.4770	-70.9546	-15.8557	 
  1097	13.5474	 1.5919	-36.4976	13.4770	-71.9573	-16.3851	 
  1098	12.7498	 1.4009	-36.4976	13.4770	-72.0175	-16.1380	 
  1099	11.6928	 1.2695	-56.8926	12.3119	-69.3839	-14.5615	 
  1100	10.0395	 1.2111	-70.5973	-14.2262	-70.6449	-16.3074	 
  1101	 9.6757	 1.4231	-61.0483	-6.8820	-19.2970	28.3040	 
  1102	 9.9119	 1.6363	-56.0993	20.7151	13.1563	64.2243	 
  1103	 9.0329	 1.3249	-38.6806	 5.5869	 8.9425	56.1095	 
  1104	 8.2585	 0.8610	-34.6758	22.8499	-27.0898	24.7719	 
  1105	 8.0454	 0.3751	-9.2229	13.4512	-63.1984	-0.8776	 
  1106	 7.7395	 0.2636	-20.1315	29.3616	-83.2424	-11.9556	 
  1107	 7.7125	 0.4624	-20.1315	29.3616	-86.6804	-12.5977	 
  1108	 7.6041	 0.5408	-9.2229	13.4512	-81.8352	-10.9009	 
  1109	 7.7667	 0.7815	-22.6076	18.3936	-69.2758	-11.4528	 
  1110	 8.3941	 1.3006	-34.6758	22.8499	-66.8363	-12.5410	 
  1111	 9.2536	 1.2420	-13.3852	 4.9426	-64.9686	-10.6443	 
  1112	 9.7646	 0.9747	-22.6076	18.3936	-61.6076	-7.4998	 
  1113	 9.7955	 0.8499	-34.6758	22.8499	-61.1601	-6.8780	 
  1114	10.4731	 0.8974	-25.4534	 9.3989	-61.7280	-7.0056	 
  1115	10.6628	 0.9394	-25.4534	 9.3989	-63.1868	-7.6664	 
  1116	10.5505	 0.9438	-34.6758	22.8499	-65.0586	-8.3621	 
  1117	10.4770	 0.9714	-34.6758	22.8499	-67.4039	-10.1200	 
  1118	10.2873	 0.9294	-22.6076	18.3936	-70.5454	-13.3455	 
  1119	10.1402	 0.9847	-22.6076	18.3936	-73.3727	-15.6750	 
  1120	10.2989	 1.1514	-22.6076	18.3936	-74.4529	-16.8879	 
  1121	11.5457	 1.3248	-22.6076	18.3936	-65.2403	-13.9925	 
  1122	12.0413	 1.4782	-22.6076	18.3936	-64.8186	-13.8109	 
  1123	12.1923	 1.4970	-22.6076	18.3936	-66.4280	-14.4910	 
  1124	12.3433	 1.5158	-22.6076	18.3936	-66.3935	-14.5412	 
  1125	12.4207	 1.5622	-22.6076	18.3936	-67.3488	-14.9007	 
  1126	12.2736	 1.6174	-25.4534	 9.3989	-69.2938	-15.5694	 
  1127	12.1613	 1.6218	-22.6076	18.3936	-70.8084	-15.9097	 
  1128	12.1226	 1.5986	-13.3852	 4.9426	-71.7550	-16.1224	 
  1129	12.0839	 1.5754	-34.6758	22.8499	-72.8178	-16.4047	 
  1130	12.0452	 1.5522	-34.6758	22.8499	-73.4159	-16.4087	 
  1131	13.0247	 1.6372	-25.4534	 9.3989	-66.3934	-13.9041	 
  1132	13.4042	 1.7212	-13.3852	 4.9426	-67.2368	-14.2673	 
  1133	13.4429	 1.7444	-22.6076	18.3936	-69.0914	-14.6696	 
  1134	13.5591	 1.8139	-25.4534	 9.3989	-68.5492	-14.3450	 
  1135	13.7062	 1.7587	-22.6076	18.3936	-69.2764	-14.6387	 
  1136	13.5939	 1.7631	-13.3852	 4.9426	-71.0922	-15.0178	 
  1137	13.4468	 1.8183	-34.6758	22.8499	-72.3270	-15.0491	 
  1138	13.4081	 1.7952	-22.6076	18.3936	-72.9208	-14.9797	 
  1139	13.3306	 1.7488	-25.4534	 9.3989	-73.8975	-15.0689	 
  1140	13.6287	 1.7123	-22.6076	18.3936	-72.2064	-14.2690	 
  1141	14.4999	 1.8757	-25.4534	 9.3989	-67.1203	-12.2863	 
  1142	14.6548	 1.9685	-25.4534	 9.3989	-70.7646	-11.9901	 
  1143	14.2444	 2.0094	-41.0612	-1.2181	-75.3041	-12.9377	 
  1144	13.8263	 1.9023	-51.7324	-4.1372	-72.4079	-10.0714	 
  1145	12.9280	 1.9376	-59.4122	-1.3014	-10.2081	36.7177	 
  1146	11.7278	 1.9355	-51.7324	-4.1372	11.8991	60.0031	 
  1147	10.6321	 1.7809	-53.7342	-9.5828	10.4828	56.2529	 
  1148	 9.3775	 1.4596	-41.0612	-1.2181	-10.4177	43.3172	 
  1149	 8.7580	 1.0885	-25.4534	 9.3989	-41.8262	26.4276	 
  1150	 9.2806	 1.0432	-22.6076	18.3936	-59.9690	12.0987	 
  1151	10.6009	 1.1890	-22.6076	18.3936	-59.7982	 4.8388	 
  1152	10.2485	 0.9062	-13.3852	 4.9426	-74.0984	-7.6854	 
  1153	10.0201	 0.8411	-34.6758	22.8499	-70.9449	-9.9744	 
  1154	10.6319	 1.0642	-28.5140	 1.8328	-65.0203	-10.8876	 
  1155	10.3221	 0.8786	-25.4534	 9.3989	-77.9679	-15.0277	 
  1156	 9.9697	 0.5959	-9.2229	13.4512	-77.6142	-10.2855	 
  1157	 9.6560	 0.3364	-22.6076	18.3936	-80.4024	-10.6803	 
  1158	 9.3501	 0.2249	-9.2229	13.4512	-83.2640	-12.3224	 
  1159	 9.2727	 0.1785	-20.1315	29.3616	-84.3572	-14.3927	 
  1160	10.4459	 0.3794	-9.2229	13.4512	-81.0313	-14.3838	 
  1161	11.8166	 0.7703	-9.2229	13.4512	-75.6440	-12.9996	 
  1162	12.3974	 1.1182	-9.2229	13.4512	-76.9006	-14.0349	 
  1163	12.4013	 1.1922	-20.1315	29.3616	-77.9850	-14.6841	 
  1164	12.5601	 1.3589	-20.1315	29.3616	-77.7957	-14.6415	 
  1165	12.5213	 1.3358	-20.1315	29.3616	-79.2071	-15.1324	 
  1166	12.4826	 1.3126	-9.2229	13.4512	-80.5581	-15.2333	 
  1167	12.3703	 1.3170	-9.2229	13.4512	-81.1820	-15.0404	 
  1168	12.3703	 1.3170	-20.1315	29.3616	-81.6251	-14.9517	 
  1169	12.2968	 1.3446	-20.1315	29.3616	-82.3351	-14.9519	 
  1170	12.9782	 1.4661	-9.2229	13.4512	-76.8272	-12.7876	 
  1171	13.5087	 1.5687	-9.2229	13.4512	-75.3126	-12.4473	 
  1172	13.4739	 1.6196	-9.2229	13.4512	-77.3522	-12.8187	 
  1173	13.6984	 1.6107	-9.2229	13.4512	-77.0337	-12.4865	 
  1174	13.8146	 1.6803	-33.5163	34.3040	-77.2962	-12.5020	 
  1175	13.6636	 1.6615	-20.1315	29.3616	-79.0259	-12.6879	 
  1176	13.5126	 1.6427	-9.2229	13.4512	-80.4157	-12.8119	 
  1177	13.4351	 1.5964	-9.2229	13.4512	-80.8502	-12.5765	 
  1178	13.3577	 1.5500	-22.6076	18.3936	-81.5602	-12.5768	 
  1179	13.3577	 1.5500	-9.2229	13.4512	-81.4998	-12.1867	 
  1180	14.1863	 1.6162	-9.2229	13.4512	-76.0437	-10.2657	 
  1181	14.2985	 1.6118	-20.1315	29.3616	-77.9757	-10.7143	 
  1182	14.2637	 1.6626	-20.1315	29.3616	-80.1055	-10.7150	 
  1183	14.3411	 1.7090	-22.6076	18.3936	-79.7741	-10.1626	 
  1184	14.3024	 1.6858	-9.2229	13.4512	-80.7595	-10.3985	 
  1185	14.1863	 1.6162	-22.6076	18.3936	-82.2310	-10.6423	 
  1186	14.0353	 1.5974	-22.6076	18.3936	-83.0141	-10.6155	 
  1187	13.8842	 1.5787	-9.2229	13.4512	-83.5691	-10.5230	 
  1188	13.7332	 1.5599	-22.6076	18.3936	-84.4641	-10.4924	 
  1189	13.6558	 1.5135	-22.6076	18.3936	-85.2686	-10.1953	 
  1190	14.3373	 1.6350	-9.2229	13.4512	-79.2875	-8.2432	 
  1191	14.6044	 1.7233	-22.6076	18.3936	-79.2875	-8.2432	 
  1192	14.6741	 1.6217	-20.1315	29.3616	-80.6773	-8.3672	 
  1193	14.6741	 1.6217	-9.2229	13.4512	-80.7504	-7.7031	 
  1194	14.6005	 1.6493	-9.2229	13.4512	-81.5978	-6.8654	 
  1195	14.1824	 1.5422	-22.6076	18.3936	-83.9384	-6.6383	 
  1196	12.9666	 1.2441	-48.1157	 9.0709	-85.1607	-8.3610	 
  1197	12.3974	 1.1182	-72.0825	-18.5131	-88.2758	-7.9604	 
  1198	12.2116	 1.1502	-86.5237	-25.8126	-41.6758	25.1726	 
  1199	11.0501	 1.1713	-83.0825	-30.8316	-19.3024	45.3610	 
  1200	11.0423	 1.0233	-71.5298	-31.3491	-4.5845	59.9050	 
  1201	11.3597	 0.6400	-57.9439	-18.8985	-1.1981	60.9410	 
  1202	10.7672	 0.0702	-38.6806	 5.5869	-29.0672	34.3482	 
  1203	10.4535	-0.1894	-22.6076	18.3936	-63.9332	 4.4165	 
  1204	10.1554	-0.1529	-22.6076	18.3936	-89.6403	-10.8301	 
  1205	 9.5940	-0.1308	-22.6076	18.3936	-96.7830	-12.2033	 
  1206	 9.3616	-0.2699	-22.6076	18.3936	-93.7151	-11.4995	 
  1207	 9.4469	-0.0756	-22.6076	18.3936	-88.7492	-8.3853	 
  1208	 9.4934	 0.0956	-9.2229	13.4512	-81.8165	-2.9613	 
  1209	 9.3385	 0.0029	-33.5163	34.3040	-81.2826	-0.8719	 
  1210	 9.7489	-0.0380	-9.2229	13.4512	-82.8147	-2.7801	 
  1211	10.0857	-0.0513	-9.2229	13.4512	-81.6060	-4.4634	 
  1212	10.2793	 0.0647	-9.2229	13.4512	-83.9815	-6.7348	 
  1213	10.6627	 0.2226	-20.1315	29.3616	-84.5065	-7.4031	 
  1214	10.7440	 0.3430	-22.6076	18.3936	-84.5281	-7.7699	 
  1215	10.5582	 0.3750	-9.2229	13.4512	-86.2580	-8.5930	 
  1216	10.4420	 0.3054	-9.2229	13.4512	-87.6951	-8.8870	 
  1217	10.2561	 0.3375	-9.2229	13.4512	-88.4051	-8.8872	 
  1218	10.1090	 0.3927	-22.6076	18.3936	-88.9687	-8.9415	 
  1219	10.1129	 0.4667	-9.2229	13.4512	-88.9558	-8.7214	 
  1220	10.9454	 0.6069	-22.6076	18.3936	-82.1743	-6.5025	 
  1221	11.2513	 0.7184	-9.2229	13.4512	-83.0177	-6.8658	 
  1222	11.2552	 0.7924	-22.6076	18.3936	-84.5624	-7.0826	 
  1223	11.3713	 0.8620	-9.2229	13.4512	-84.1278	-6.6808	 
  1224	11.3326	 0.8388	-9.2229	13.4512	-85.1045	-6.7700	 
  1225	11.1081	 0.8477	-9.2229	13.4512	-86.5717	-6.9404	 
  1226	10.8874	 0.9305	-9.2229	13.4512	-87.5312	-6.7360	 
  1227	10.7751	 0.9349	-9.2229	13.4512	-87.9701	-6.5740	 
  1228	10.5467	 0.8698	-9.2229	13.4512	-88.8736	-6.6901	 
  1229	10.6280	 0.9902	-22.6076	18.3936	-87.8624	-6.0140	 
  1230	11.4217	 1.1072	-22.6076	18.3936	-82.2686	-4.2937	 
  1231	11.5766	 1.2000	-22.6076	18.3936	-83.6713	-4.6378	 
  1232	11.5457	 1.3248	-9.2229	13.4512	-84.4845	-4.4875	 
  1233	11.6231	 1.3711	-22.6076	18.3936	-84.1617	-4.0819	 
  1234	11.6192	 1.2971	-33.5163	34.3040	-85.2159	-4.2174	 
  1235	11.3947	 1.3060	-9.2229	13.4512	-86.7089	-4.1909	 
  1236	11.2863	 1.3844	-9.2229	13.4512	-87.8964	-4.0523	 
  1237	11.1740	 1.3888	-9.2229	13.4512	-89.0108	-3.9406	 
  1238	10.9882	 1.4209	-9.2229	13.4512	-90.8438	-3.9760	 
  1239	10.8798	 1.4993	-22.6076	18.3936	-92.1001	-3.7370	 
  1240	11.5690	 1.7687	-20.1315	29.3616	-87.8658	-0.9899	 
  1241	12.4363	 1.8581	-22.6076	18.3936	-83.6875	 0.8032	 
  1242	12.6377	 2.1221	-9.2229	13.4512	-84.0917	 2.1895	 
  1243	12.9475	 2.3076	-28.5140	 1.8328	-82.0992	 4.3024	 
  1244	12.0220	 1.8250	-64.4535	-16.4948	-55.4144	24.7356	 
  1245	10.6165	 1.4849	-71.5298	-31.3491	 1.3850	68.6459	 
  1246	 9.2962	 1.3392	-75.1431	-26.0791	-3.5162	66.6324	 
  1247	 7.9681	 1.0455	-55.8520	-14.4608	-23.2713	58.5589	 
  1248	 7.4260	 0.7208	-38.6806	 5.5869	-46.7931	41.0810	 
  1249	 7.0775	 0.5121	-25.4534	 9.3989	-67.6172	22.4570	 
  1250	 7.0388	 0.4889	-22.6076	18.3936	-87.9041	 0.8984	 
  1251	 8.5179	 0.8014	-22.6076	18.3936	-94.5276	-8.1632	 
  1252	 8.6379	 0.9450	-22.6076	18.3936	-95.2634	-7.9665	 
  1253	 8.9825	 1.0797	-34.6758	22.8499	-95.9468	-4.3407	 
  1254	 8.6998	 0.6954	-22.6076	18.3936	-86.5312	 2.6405	 
  1255	 8.9166	 0.5385	-20.1315	29.3616	-88.5968	 1.1917	 
  1256	 8.7191	 0.3486	-5.1377	23.8250	-94.8753	-3.2745	 
  1257	 8.5642	 0.2558	-5.1377	23.8250	-101.7261	-8.5788	 
  1258	 8.6068	 0.3530	-5.1377	23.8250	-101.5241	-9.5905	 
  1259	 8.6533	 0.5242	-20.1315	29.3616	-101.6490	-10.4440	 
  1260	 8.8469	 0.6401	-5.1377	23.8250	-102.5140	-11.1741	 
  1261	 9.8382	 0.9471	-5.1377	23.8250	-90.6766	-7.4862	 
  1262	10.2950	 1.0774	-9.2229	13.4512	-89.5192	-7.5013	 
  1263	10.4151	 1.2210	-9.2229	13.4512	-90.6078	-7.5866	 
  1264	10.4190	 1.2950	-9.2229	13.4512	-89.1446	-6.2152	 
  1265	10.3067	 1.2994	-9.2229	13.4512	-89.3769	-5.7171	 
  1266	10.1209	 1.3314	-33.5163	34.3040	-90.7494	-5.5477	 
  1267	10.0086	 1.3359	-22.6076	18.3936	-91.4808	-5.2776	 
  1268	 9.7879	 1.4187	-22.6076	18.3936	-91.9067	-4.8954	 
  1269	 9.6718	 1.3491	-22.6076	18.3936	-92.4531	-4.6562	 
  1270	 9.4472	 1.3580	-9.2229	13.4512	-93.0640	-4.2432	 
  1271	10.2061	 1.5258	-22.6076	18.3936	-87.5863	-1.9553	 
  1272	10.7017	 1.6793	-9.2229	13.4512	-87.1516	-1.5535	 
  1273	10.9187	 2.2392	-9.2229	13.4512	-88.1972	-1.5423	 
  1274	11.2401	 2.6468	-9.2229	13.4512	-88.1626	-0.9553	 
  1275	11.4337	 2.7627	-9.2229	13.4512	-88.5283	-0.8202	 
  1276	11.5112	 2.8091	-20.1315	29.3616	-89.9869	-0.8439	 
  1277	11.4763	 2.8599	-20.1315	29.3616	-90.9851	-0.6627	 
  1278	11.5151	 2.8831	-9.2229	13.4512	-91.6778	-0.3695	 
  1279	11.4415	 2.9107	-22.6076	18.3936	-92.4996	-0.3659	 
  1280	11.3292	 2.9151	-22.6076	18.3936	-93.6226	-0.4010	 
  1281	12.1578	 2.9813	-9.2229	13.4512	-88.8119	 1.3461	 
  1282	12.7270	 3.1072	-9.2229	13.4512	-87.9341	 1.6591	 
  1283	12.8044	 3.1536	-22.6076	18.3936	-89.1475	 1.3575	 
  1284	12.9941	 3.1956	-22.6076	18.3936	-88.5322	 1.6551	 
  1285	13.1451	 3.2143	-9.2229	13.4512	-88.9366	 1.7669	 
  1286	12.9593	 3.2464	-9.2229	13.4512	-90.4383	 1.6467	 
  1287	12.8819	 3.2000	-22.6076	18.3936	-91.7807	 1.6926	 
  1288	12.8431	 3.1768	-9.2229	13.4512	-92.7445	 1.8236	 
  1289	12.6921	 3.1580	-22.6076	18.3936	-93.6652	 2.0512	 
  1290	12.7270	 3.1072	-22.6076	18.3936	-94.4267	 2.4448	 
  1291	13.6330	 3.2198	-9.2229	13.4512	-89.2072	 4.1534	 
  1292	13.9776	 3.3546	-9.2229	13.4512	-88.9704	 5.0030	 
  1293	13.9118	 3.5302	-22.6076	18.3936	-89.6500	 6.1536	 
  1294	13.4898	 3.3491	-28.5140	 1.8328	-90.8033	 5.6048	 
  1295	12.8315	 2.9548	-61.0483	-6.8820	-94.2363	 8.2219	 
  1296	12.6805	 2.9360	-69.2368	-9.5184	-62.2754	34.5033	 
  1297	12.3748	 3.5413	-64.4535	-16.4948	-7.4472	75.3932	 
  1298	11.1202	 3.2199	-55.8520	-14.4608	 4.0289	79.9267	 
  1299	10.1716	 3.0101	-55.8520	-14.4608	 2.1046	74.5275	 
  1300	 9.5521	 2.6391	-51.7324	-4.1372	-17.1961	57.6650	 
  1301	10.3224	 2.3122	-36.4976	13.4770	-66.1949	12.3361	 
  1302	11.1393	 2.1564	-28.5140	 1.8328	-83.4003	-5.1127	 
  1303	11.2594	 2.3000	-53.7342	-9.5828	-86.2178	-0.9238	 
  1304	11.0271	 2.1608	-64.4535	-16.4948	-99.2374	 0.6977	 
  1305	10.6128	 2.1277	-55.8520	-14.4608	-105.5283	-0.8026	 
  1306	 9.9701	 2.0294	-49.8381	 2.0228	-100.3903	 2.0605	 
  1307	 9.6951	 1.7931	-38.6806	 5.5869	-94.4734	 6.0979	 
  1308	 9.7299	 1.7423	-36.4976	13.4770	-96.2892	 5.7189	 
  1309	 9.6525	 1.6959	-13.3852	 4.9426	-100.8506	 2.4929	 
  1310	 9.5480	 1.8483	-34.6758	22.8499	-101.1735	 1.4501	 
  1311	10.5314	 2.0073	-22.6076	18.3936	-95.5067	 2.5062	 
  1312	11.5923	 2.2127	-9.2229	13.4512	-89.7968	 3.6589	 
  1313	11.8208	 2.2779	-22.6076	18.3936	-90.8295	 3.2531	 
  1314	11.9409	 2.4214	-22.6076	18.3936	-91.2943	 2.9749	 
  1315	12.0648	 2.6390	-9.2229	13.4512	-91.1480	 2.9209	 
  1316	12.0300	 2.6898	-22.6076	18.3936	-92.4432	 2.4995	 
  1317	11.8829	 2.7450	-22.6076	18.3936	-93.5662	 2.4644	 
  1318	11.7745	 2.8234	-22.6076	18.3936	-94.1212	 2.5569	 
  1319	11.5847	 2.7815	-22.6076	18.3936	-94.7580	 2.5296	 
  1320	11.3176	 2.6931	-22.6076	18.3936	-95.8896	 2.3478	 
  1321	11.7357	 2.8002	-22.6076	18.3936	-92.7700	 3.2949	 
  1322	12.2662	 2.9029	-22.6076	18.3936	-89.6160	 4.1918	 
  1323	12.1965	 3.0045	-13.3852	 4.9426	-91.0144	 3.9211	 
  1324	12.2352	 3.0277	-22.6076	18.3936	-91.2295	 4.0755	 
  1325	12.2352	 3.0277	-22.6076	18.3936	-91.0746	 4.1682	 
  1326	11.9371	 3.0642	-22.6076	18.3936	-92.3525	 4.0403	 
  1327	11.7513	 3.0962	-22.6076	18.3936	-93.2432	 4.1443	 
  1328	11.6003	 3.0775	-22.6076	18.3936	-93.6089	 4.2794	 
  1329	11.3757	 3.0863	-22.6076	18.3936	-94.1596	 4.4452	 
  1330	11.5229	 3.0311	-22.6076	18.3936	-93.7379	 4.6269	 
  1331	12.1307	 3.1801	-22.6076	18.3936	-89.0735	 5.7908	 
  1332	12.1695	 3.2033	-22.6076	18.3936	-89.8653	 5.6708	 
  1333	12.0959	 3.2309	-22.6076	18.3936	-90.8076	 5.5315	 
  1334	12.0998	 3.3049	-22.6076	18.3936	-90.7258	 5.6512	 
  1335	11.9875	 3.3094	-22.6076	18.3936	-91.8919	 5.5195	 
  1336	11.7669	 3.3922	-22.6076	18.3936	-94.3014	 5.2098	 
  1337	11.6933	 3.4198	-22.6076	18.3936	-95.5449	 5.0318	 
  1338	11.5501	 3.5490	-34.6758	22.8499	-96.3840	 4.7419	 
  1339	11.5191	 3.6738	-22.6076	18.3936	-97.2746	 4.8458	 
  1340	11.6818	 3.9146	-22.6076	18.3936	-96.6163	 5.2399	 
  1341	12.3788	 4.3320	-25.4534	 9.3989	-93.9397	 6.9129	 
  1342	12.7273	 4.5408	-38.6806	 5.5869	-93.1344	10.4389	 
  1343	12.6034	 4.3232	-58.0299	 5.0477	-71.9450	26.3791	 
  1344	11.6586	 4.1874	-51.7324	-4.1372	-6.3977	73.5438	 
  1345	10.1990	 4.2449	-59.4122	-1.3014	 1.8594	74.8054	 
  1346	 9.2582	 4.1831	-55.8520	-14.4608	-5.1725	67.6938	 
  1347	 9.3123	 3.7855	-43.5407	-7.1620	-27.7642	53.9582	 
  1348	 9.2193	 3.4431	-38.6806	 5.5869	-49.6079	36.4229	 
  1349	 8.9443	 3.2068	-21.4595	-8.4562	-67.4461	17.1087	 
  1350	 8.0035	 3.1450	-36.4976	13.4770	-86.1773	 8.6571	 
  1351	 8.5688	 3.1969	-25.4534	 9.3989	-78.6814	12.2238	 
  1352	 8.4874	 3.0765	-13.3852	 4.9426	-78.1220	12.2047	 
  1353	 8.5532	 2.9009	-9.2229	13.4512	-79.8863	11.4318	 
  1354	 9.1107	 2.8048	-9.2229	13.4512	-81.0182	 9.3384	 
  1355	 9.7069	 2.7319	-9.2229	13.4512	-82.6321	 7.3105	 
  1356	 9.8153	 2.6534	-9.2229	13.4512	-84.9816	 6.1165	 
  1357	 9.7418	 2.6811	-9.2229	13.4512	-88.8630	 4.2886	 
  1358	 9.5133	 2.6159	-9.2229	13.4512	-92.8392	 1.4838	 
  1359	 9.3275	 2.6479	-9.2229	13.4512	-94.1129	 0.7921	 
  1360	 9.2152	 2.6524	-0.0004	 0.0002	-94.8617	 0.1315	 
  1361	 9.4011	 2.6203	-13.3852	 4.9426	-93.3343	 0.0548	 
  1362	10.3148	 2.8809	-9.2229	13.4512	-85.1544	 2.5444	 
  1363	10.5820	 2.9693	-9.2229	13.4512	-85.9247	 2.1541	 
  1364	10.5511	 3.0941	-22.6076	18.3936	-87.0606	 1.8989	 
  1365	10.7060	 3.1868	-22.6076	18.3936	-86.2172	 2.2621	 
  1366	10.6363	 3.2884	-22.6076	18.3936	-87.3876	 2.0571	 
  1367	10.5201	 3.2189	-13.3852	 4.9426	-88.8247	 1.7631	 
  1368	10.4078	 3.2233	-22.6076	18.3936	-89.2980	 1.9754	 
  1369	10.2956	 3.2277	-22.6076	18.3936	-89.1946	 2.4620	 
  1370	10.0710	 3.2366	-25.4534	 9.3989	-89.7023	 2.7244	 
  1371	10.5627	 3.3161	-13.3852	 4.9426	-86.1351	 4.2934	 
  1372	11.2094	 3.4883	-13.3852	 4.9426	-83.3984	 5.0821	 
  1373	11.2481	 3.5115	-13.3852	 4.9426	-84.9991	 4.5486	 
  1374	11.2907	 3.6087	-13.3852	 4.9426	-84.8356	 4.7881	 
  1375	11.4456	 3.7015	-34.6758	22.8499	-84.5214	 5.0469	 
  1376	11.3372	 3.7799	-22.6076	18.3936	-85.9199	 4.7762	 
  1377	11.2249	 3.7843	-22.6076	18.3936	-86.9740	 4.6407	 
  1378	11.1165	 3.8627	-13.3852	 4.9426	-87.4473	 4.8529	 
  1379	11.0430	 3.8903	-22.6076	18.3936	-87.8517	 4.9648	 
  1380	11.3837	 3.9511	-13.3852	 4.9426	-85.7432	 5.8729	 
  1381	12.0651	 4.0725	-13.3852	 4.9426	-81.9481	 6.8705	 
  1382	12.1426	 4.1189	-22.6076	18.3936	-83.1959	 6.6191	 
  1383	12.1426	 4.1189	-22.6076	18.3936	-83.4971	 6.5804	 
  1384	12.2200	 4.1653	-13.3852	 4.9426	-83.0754	 6.7620	 
  1385	12.1078	 4.1697	-13.3852	 4.9426	-84.0565	 6.5995	 
  1386	11.8832	 4.1785	-22.6076	18.3936	-84.9084	 6.7266	 
  1387	11.8832	 4.1785	-13.3852	 4.9426	-85.1235	 6.8810	 
  1388	11.6586	 4.1874	-13.3852	 4.9426	-85.5494	 7.2632	 
  1389	12.2626	 4.2625	-34.6758	22.8499	-82.2188	 8.6197	 
  1390	12.7931	 4.3652	-25.4534	 9.3989	-80.9624	 9.0179	 
  1391	12.7583	 4.4160	-22.6076	18.3936	-83.4795	 8.7854	 
  1392	12.7195	 4.3928	-13.3852	 4.9426	-84.6195	 9.7311	 
  1393	12.3440	 4.3828	-25.4534	 9.3989	-85.1567	13.3030	 
  1394	11.6277	 4.3122	-43.5407	-7.1620	-86.9204	15.7160	 
  1395	11.2173	 4.3531	-55.8520	-14.4608	-55.1109	36.8806	 
  1396	10.4817	 4.6292	-53.7342	-9.5828	-0.4082	74.3683	 
  1397	 9.2002	 4.5067	-55.8520	-14.4608	 1.3166	71.2950	 
  1398	 9.3008	 4.2803	-55.8520	-14.4608	-6.4854	64.4303	 
  1399	10.1255	 4.2725	-38.6806	 5.5869	-31.8630	39.5412	 
  1400	10.3422	 4.1157	-25.4534	 9.3989	-75.5236	10.0083	 
  1401	10.2300	 4.1201	-25.4534	 9.3989	-75.1532	11.8581	 
  1402	10.2687	 4.1433	-36.4976	13.4770	-74.1713	16.4809	 
  1403	10.3113	 4.2405	-41.0612	-1.2181	-96.2243	 7.4567	 
  1404	 9.3936	 3.9059	-38.6806	 5.5869	-91.7668	 7.0102	 
  1405	 9.1883	 3.5679	-25.4534	 9.3989	-88.7330	 9.0385	 
  1406	 9.2271	 3.5911	-25.4534	 9.3989	-92.0764	 8.0991	 
  1407	 9.3781	 3.6099	-25.4534	 9.3989	-92.3994	 6.4191	 
  1408	10.2880	 3.7965	-34.6758	22.8499	-83.7422	 7.4955	 
  1409	10.8610	 3.9964	-22.6076	18.3936	-83.0324	 6.8586	 
  1410	11.0159	 4.0891	-22.6076	18.3936	-84.2718	 5.4795	 
  1411	11.1747	 4.2559	-22.6076	18.3936	-83.7083	 4.8966	 
  1412	11.1437	 4.3807	-13.3852	 4.9426	-84.5473	 4.6067	 
  1413	11.0663	 4.3343	-22.6076	18.3936	-85.8382	 4.2587	 
  1414	10.8844	 4.4403	-13.3852	 4.9426	-86.4406	 4.1813	 
  1415	10.7682	 4.3708	-22.6076	18.3936	-86.8751	 4.4167	 
  1416	10.8030	 4.3200	-22.6076	18.3936	-86.7073	 4.7296	 
  1417	11.5232	 4.4646	-13.3852	 4.9426	-81.5997	 6.4420	 
  1418	11.6006	 4.5110	-22.6076	18.3936	-82.1676	 6.3143	 
  1419	11.4884	 4.5154	-13.3852	 4.9426	-83.6005	 6.0938	 
  1420	11.5658	 4.5618	-13.3852	 4.9426	-83.2863	 6.3526	 
  1421	11.4535	 4.5662	-22.6076	18.3936	-84.1168	 6.2094	 
  1422	11.2716	 4.6722	-13.3852	 4.9426	-85.4291	 6.1318	 
  1423	11.2019	 4.7739	-34.6758	22.8499	-86.2810	 6.2589	 
  1424	11.2406	 4.7970	-22.6076	18.3936	-86.7586	 6.3978	 
  1425	11.3607	 4.9406	-25.4534	 9.3989	-86.1690	 6.8923	 
  1426	12.3442	 5.0996	-13.3852	 4.9426	-80.8506	 8.3769	 
  1427	12.4990	 5.1924	-22.6076	18.3936	-81.6036	 8.2801	 
  1428	12.4603	 5.1692	-22.6076	18.3936	-82.5115	 8.0906	 
  1429	12.5339	 5.1416	-22.6076	18.3936	-82.2748	 8.3031	 
  1430	12.4216	 5.1460	-13.3852	 4.9426	-83.0235	 8.2797	 
  1431	12.1932	 5.0808	-22.6076	18.3936	-84.3358	 8.2020	 
  1432	12.0770	 5.0113	-13.3852	 4.9426	-85.5234	 8.3406	 
  1433	11.8912	 5.0433	-25.4534	 9.3989	-86.3064	 8.3674	 
  1434	11.8137	 4.9969	-13.3852	 4.9426	-87.2444	 8.3014	 
  1435	12.4177	 5.0720	-13.3852	 4.9426	-82.4725	 9.3881	 
  1436	13.0178	 5.0731	-13.3852	 4.9426	-80.8805	 9.7748	 
  1437	13.0217	 5.1471	-13.3852	 4.9426	-82.2875	 9.3573	 
  1438	13.0604	 5.1703	-34.6758	22.8499	-82.5457	 9.4151	 
  1439	13.0992	 5.1935	-22.6076	18.3936	-82.9975	 9.3571	 
  1440	13.0295	 5.2951	-25.4534	 9.3989	-85.8115	 9.1592	 
  1441	12.8824	 5.3503	-25.4534	 9.3989	-88.3671	10.1778	 
  1442	12.4720	 5.3912	-34.6758	22.8499	-90.0921	11.9768	 
  1443	11.9842	 5.3857	-36.4976	13.4770	-94.8469	10.5464	 
  1444	11.7557	 5.3205	-51.7324	-4.1372	-86.3391	17.9752	 
  1445	12.5341	 5.8583	-53.7342	-9.5828	-7.7659	73.7867	 
  1446	11.7481	 5.8893	-64.4535	-16.4948	 7.7039	82.6929	 
  1447	10.5555	 5.3184	-61.0483	-6.8820	-6.5107	67.1759	 
  1448	10.6327	 4.6480	-36.4976	13.4770	-45.1782	25.3413	 
  1449	10.0093	 4.2029	-25.4534	 9.3989	-67.9766	10.6325	 
  1450	 9.3705	 4.1787	-25.4534	 9.3989	-82.9549	 6.9049	 
  1451	 9.2195	 4.1599	-25.4534	 9.3989	-73.9008	13.4573	 
  1452	 8.9910	 4.0947	-25.4534	 9.3989	-73.1602	16.5198	 
  1453	 8.9562	 4.1455	-25.4534	 9.3989	-79.3691	15.7764	 
  1454	 8.9871	 4.0207	-25.4534	 9.3989	-84.9198	14.7898	 
  1455	10.3306	 3.8937	-22.6076	18.3936	-84.3782	11.9285	 
  1456	11.2675	 3.8815	-22.6076	18.3936	-83.7115	10.5578	 
  1457	11.5308	 3.8958	-22.6076	18.3936	-84.5464	 9.7041	 
  1458	11.6896	 4.0626	-22.6076	18.3936	-84.5208	 8.2328	 
  1459	11.6238	 4.2382	-22.6076	18.3936	-82.5291	 5.8856	 
  1460	11.8561	 4.3773	-13.3852	 4.9426	-83.3165	 5.8390	 
  1461	11.8561	 4.3773	-25.4534	 9.3989	-84.7364	 5.8385	 
  1462	11.7826	 4.4050	-25.4534	 9.3989	-85.1796	 5.9272	 
  1463	11.6316	 4.3862	-25.4534	 9.3989	-85.4721	 6.0352	 
  1464	11.5503	 4.2658	-25.4534	 9.3989	-86.1347	 6.2049	 
  1465	12.1969	 4.4381	-25.4534	 9.3989	-81.6769	 7.6700	 
  1466	12.8744	 4.4855	-25.4534	 9.3989	-79.4781	 8.2074	 
  1467	12.8396	 4.5363	-25.4534	 9.3989	-80.7259	 7.9560	 
  1468	12.9558	 4.6059	-25.4534	 9.3989	-80.9497	 7.9637	 
  1469	13.1416	 4.5739	-25.4534	 9.3989	-80.9798	 8.0872	 
  1470	12.9558	 4.6059	-25.4534	 9.3989	-82.2577	 7.9594	 
  1471	12.8435	 4.6103	-25.4534	 9.3989	-83.4538	 7.9513	 
  1472	12.7273	 4.5408	-25.4534	 9.3989	-84.2025	 7.9279	 
  1473	12.5763	 4.5220	-25.4534	 9.3989	-84.8350	 7.9740	 
  1474	12.4253	 4.5032	-17.4698	-2.2453	-85.8548	 7.7883	 
  1475	12.9558	 4.6059	-28.5140	 1.8328	-83.2860	 8.2641	 
  1476	13.8269	 4.7693	-36.4976	13.4770	-79.9770	 9.2538	 
  1477	13.9779	 4.7881	-36.4976	13.4770	-81.1904	 8.9522	 
  1478	14.0902	 4.7837	-28.5140	 1.8328	-81.6035	 8.9173	 
  1479	14.2064	 4.8532	-36.4976	13.4770	-81.2205	 9.0758	 
  1480	14.2064	 4.8532	-17.4698	-2.2453	-82.2747	 8.9402	 
  1481	14.0206	 4.8853	-28.5140	 1.8328	-83.3633	 8.8549	 
  1482	13.9431	 4.8389	-25.4534	 9.3989	-83.8796	 8.9706	 
  1483	13.8696	 4.8665	-17.4698	-2.2453	-84.3572	 9.1095	 
  1484	13.9005	 4.7417	-36.4976	13.4770	-84.5422	 9.1403	 
  1485	14.8065	 4.8543	-28.5140	 1.8328	-79.8779	10.3042	 
  1486	15.1085	 4.8919	-28.5140	 1.8328	-79.8047	10.2772	 
  1487	15.1433	 4.8411	-28.5140	 1.8328	-80.8632	10.0683	 
  1488	15.2130	 4.7394	-28.5140	 1.8328	-81.2635	 9.6164	 
  1489	14.9420	 4.5771	-28.5140	 1.8328	-83.5312	 8.5421	 
  1490	14.5625	 4.4932	-25.4534	 9.3989	-85.6439	 8.1977	 
  1491	14.5703	 4.6412	-17.4698	-2.2453	-86.9087	 8.9271	 
  1492	14.6516	 4.7616	-36.4976	13.4770	-89.4388	 8.4745	 
  1493	14.3263	 4.2800	-31.6261	-4.7021	-91.4570	 7.1956	 
  1494	14.0901	 4.0669	-61.0483	-6.8820	-92.3823	 6.0754	 
  1495	14.8373	 4.0128	-66.1581	-20.7008	-92.7824	 6.2607	 
  1496	14.6437	 3.8968	-53.7342	-9.5828	-52.3708	33.2824	 
  1497	13.1453	 3.9311	-55.8520	-14.4608	-4.2342	69.6713	 
  1498	12.1270	 3.8229	-64.4535	-16.4948	 4.2559	74.2579	 
  1499	11.3874	 3.3083	-46.0544	-12.4186	-18.8621	52.8451	 
  1500	10.6052	 2.6965	-17.4698	-2.2453	-54.4416	26.6629	 
  1501	 9.4203	 2.2735	-17.4698	-2.2453	-74.9431	 7.8073	 
  1502	 8.8241	 2.3465	-28.5140	 1.8328	-88.9669	 0.6162	 
  1503	 9.9161	 3.1438	-38.6806	 5.5869	-76.9440	 7.4591	 
  1504	11.0391	 3.8163	-41.0612	-1.2181	-88.1656	 5.9803	 
  1505	12.4716	 3.9576	-38.6806	 5.5869	-84.9945	 6.5335	 
  1506	12.8200	 3.4496	-36.4976	13.4770	-83.4114	 4.8620	 
  1507	13.0406	 3.3668	-25.4534	 9.3989	-84.9437	 1.6794	 
  1508	13.2961	 3.2331	-13.3852	 4.9426	-81.6522	 1.7384	 
  1509	13.2265	 3.3347	-22.6076	18.3936	-81.5061	 0.4101	 
  1510	13.1916	 3.3855	-13.3852	 4.9426	-83.1930	-0.9537	 
  1511	13.0445	 3.4407	-25.4534	 9.3989	-84.1870	-1.3363	 
  1512	12.9323	 3.4452	-25.4534	 9.3989	-84.2558	-1.2359	 
  1513	12.7851	 3.5004	-25.4534	 9.3989	-85.0519	-1.4293	 
  1514	13.3930	 3.6495	-25.4534	 9.3989	-81.4287	 0.4564	 
  1515	14.2564	 3.6649	-25.4534	 9.3989	-77.3666	 2.1801	 
  1516	14.2255	 3.7897	-25.4534	 9.3989	-78.5542	 1.6815	 
  1517	14.3843	 3.9565	-25.4534	 9.3989	-79.1653	 1.4573	 
  1518	14.8645	 4.5307	-25.4534	 9.3989	-79.0707	 1.1600	 
  1519	15.1202	 5.1138	-25.4534	 9.3989	-80.2583	 0.6615	 
  1520	15.2790	 5.2806	-25.4534	 9.3989	-81.5061	 0.4101	 
  1521	15.4687	 5.3226	-28.5140	 1.8328	-82.0311	 0.3790	 
  1522	15.5074	 5.3458	-25.4534	 9.3989	-82.6291	 0.3749	 
  1523	15.3951	 5.3502	-25.4534	 9.3989	-83.5714	 0.2356	 
  1524	15.9217	 5.3789	-25.4534	 9.3989	-80.7357	 1.4375	 
  1525	16.8664	 5.5147	-25.4534	 9.3989	-76.7254	 2.9179	 
  1526	17.1297	 5.5290	-25.4534	 9.3989	-78.0162	 2.5699	 
  1527	17.3194	 5.5710	-25.4534	 9.3989	-78.4637	 2.5852	 
  1528	17.6640	 5.7057	-25.4534	 9.3989	-78.1797	 2.9676	 
  1529	17.5518	 5.7101	-25.4534	 9.3989	-79.5437	 2.6466	 
  1530	17.4665	 5.5158	-17.4698	-2.2453	-80.9034	 2.3990	 
  1531	17.2342	 5.3766	-17.4698	-2.2453	-81.3379	 2.6344	 
  1532	17.1141	 5.2330	-25.4534	 9.3989	-82.0651	 2.3407	 
  1533	16.9244	 5.1911	-36.4976	13.4770	-83.2140	 1.8654	 
  1534	17.1025	 5.0111	-28.5140	 1.8328	-82.1727	 2.4179	 
  1535	17.9620	 4.9525	-28.5140	 1.8328	-77.6761	 3.9061	 
  1536	18.2445	 4.6200	-28.5140	 1.8328	-78.8422	 3.1373	 
  1537	17.9696	 4.3837	-28.5140	 1.8328	-79.1607	 2.8051	 
  1538	17.5824	 4.1518	-28.5140	 1.8328	-78.1280	 3.2109	 
  1539	17.5475	 4.2026	-28.5140	 1.8328	-78.7520	 2.7666	 
  1540	17.9735	 4.4577	-28.5140	 1.8328	-79.6901	 2.0635	 
  1541	17.9386	 4.5085	-31.6261	-4.7021	-78.9757	 2.7742	 
  1542	16.9550	 3.6328	-31.6261	-4.7021	-79.0661	 2.5078	 
  1543	14.6935	 1.9917	-28.5140	 1.8328	-79.6944	 1.9901	 
  1544	13.3653	 0.9812	-28.5140	 1.8328	-76.7340	 2.7711	 
  1545	13.4272	 0.7316	-17.4698	-2.2453	-68.2141	 5.9598	 
  1546	13.5317	 0.5792	-25.4534	 9.3989	-67.2073	 5.9254	 
  1547	13.6788	 0.5240	-25.4534	 9.3989	-68.1367	 5.3690	 
  1548	13.8646	 0.4919	-13.3852	 4.9426	-67.9517	 5.3381	 
  1549	13.6671	 0.3020	-25.4534	 9.3989	-69.5051	 4.9746	 
  1550	13.1986	-0.0503	-13.3852	 4.9426	-71.1616	 4.7617	 
  1551	13.0437	-0.1431	-25.4534	 9.3989	-72.0739	 4.4988	 
  1552	13.2682	-0.1519	-13.3852	 4.9426	-72.9733	 3.8189	 
  1553	13.3031	-0.2027	-25.4534	 9.3989	-74.1135	 3.4902	 
  1554	13.1521	-0.2215	-25.4534	 9.3989	-75.0946	 3.3277	 
  1555	13.7135	-0.2436	-13.3852	 4.9426	-69.3888	 5.6814	 
  1556	14.3484	-0.2933	-22.6076	18.3936	-64.0875	 7.5097	 
  1557	14.4220	-0.3209	-13.3852	 4.9426	-66.2648	 6.7019	 
  1558	14.6891	-0.2326	-13.3852	 4.9426	-67.8526	 6.3885	 
  1559	15.0299	-0.1719	-13.3852	 4.9426	-66.8414	 6.4275	 
  1560	15.1809	-0.1531	-13.3852	 4.9426	-69.4835	 5.3415	 
  1561	15.2157	-0.2039	-25.4534	 9.3989	-70.6926	 5.1133	 
  1562	15.1305	-0.3983	-13.3852	 4.9426	-69.8319	 5.7700	 
  1563	14.9407	-0.4402	-13.3852	 4.9426	-70.7528	 5.3604	 
  1564	14.4800	-0.6445	-13.3852	 4.9426	-72.9773	 5.0198	 
  1565	14.2398	-0.9317	-13.3852	 4.9426	-70.7181	 6.5846	 
  1566	14.3017	-1.1813	-13.3852	 4.9426	-65.9762	 8.4320	 
  1567	13.5389	-1.4231	-13.3852	 4.9426	-67.7059	 8.2461	 
  1568	13.2292	-1.6086	-13.3852	 4.9426	-68.2094	 7.9447	 
  1569	13.4537	-1.6175	-22.6076	18.3936	-68.1321	 7.3539	 
  1570	13.6086	-1.5247	-13.3852	 4.9426	-69.6124	 6.3262	 
  1571	13.3763	-1.6639	-25.4534	 9.3989	-70.8602	 6.0748	 
  1572	12.9542	-1.8450	-13.3852	 4.9426	-71.4194	 6.7311	 
  1573	12.3037	-2.0912	-13.3852	 4.9426	-70.5629	 8.5888	 
  1574	11.3125	-2.3982	-22.6076	18.3936	-68.1914	12.0612	 
  1575	12.0984	-2.4292	-9.2229	13.4512	-59.9082	15.0374	 
  1576	12.4779	-2.3453	-9.2229	13.4512	-58.5184	15.1615	 
  1577	12.2881	-2.3872	-9.2229	13.4512	-59.2111	15.4547	 
  1578	12.1720	-2.4568	-9.2229	13.4512	-57.5845	16.4284	 
  1579	11.9823	-2.4987	-0.0004	 0.0002	-56.8702	16.5020	 
  1580	11.5950	-2.7307	-9.2229	13.4512	-59.1077	15.9413	 
  1581	11.1420	-2.7870	-9.2229	13.4512	-61.4744	15.0910	 
  1582	10.9484	-2.9029	-9.2229	13.4512	-63.0664	14.7043	 
  1583	10.6425	-3.0144	-9.2229	13.4512	-64.5553	14.1670	 
  1584	10.6425	-3.0144	-9.2229	13.4512	-63.2170	14.6849	 
  1585	11.4711	-2.9482	-9.2229	13.4512	-56.7713	16.2781	 
  1586	11.4362	-2.8974	-9.2229	13.4512	-58.5226	15.7253	 
  1587	11.3201	-2.9670	-9.2229	13.4512	-60.4202	15.2265	 
  1588	11.2814	-2.9902	-9.2229	13.4512	-60.2954	15.4428	 
  1589	10.9406	-3.0509	-9.2229	13.4512	-61.2936	15.6239	 
  1590	10.5960	-3.1856	-9.2229	13.4512	-63.4363	15.4031	 
  1591	10.2940	-3.2232	-9.2229	13.4512	-64.3529	15.0669	 
  1592	10.1043	-3.2651	-9.2229	13.4512	-65.0844	14.6998	 
  1593	 9.9494	-3.3579	-9.2229	13.4512	-66.6507	14.1161	 
  1594	10.3288	-3.2740	-9.2229	13.4512	-63.3848	15.0093	 
  1595	10.9290	-3.2729	-9.2229	13.4512	-58.2944	16.4282	 
  1596	10.7431	-3.2409	-9.2229	13.4512	-60.3253	16.2035	 
  1597	10.6270	-3.3104	-9.2229	13.4512	-60.8373	16.3926	 
  1598	10.7392	-3.3149	-9.2229	13.4512	-60.3124	16.4236	 
  1599	10.5921	-3.2596	-9.2229	13.4512	-62.5973	15.6930	 
  1600	10.2127	-3.3435	-9.2229	13.4512	-64.4044	15.4607	 
  1601	 9.9068	-3.4551	-9.2229	13.4512	-65.1875	15.4875	 
  1602	 9.7171	-3.4970	-9.2229	13.4512	-65.9147	15.1938	 
  1603	 9.6048	-3.4926	-9.2229	13.4512	-66.6075	14.8499	 
  1604	10.2823	-3.4452	-9.2229	13.4512	-60.6050	16.5317	 
  1605	10.8089	-3.4165	-9.2229	13.4512	-58.6429	16.8567	 
  1606	10.5108	-3.3800	-9.2229	13.4512	-61.6334	16.1992	 
  1607	10.2436	-3.4683	-9.2229	13.4512	-62.4035	16.4461	 
  1608	10.2784	-3.5192	-20.1315	29.3616	-61.8442	16.4270	 
  1609	10.0539	-3.5103	-9.2229	13.4512	-64.0817	15.8663	 
  1610	 9.7132	-3.5710	-9.2229	13.4512	-66.0050	15.5645	 
  1611	 9.4847	-3.6362	-9.2229	13.4512	-67.0377	15.1587	 
  1612	 9.1827	-3.6737	-9.2229	13.4512	-67.8682	15.0155	 
  1613	 9.5970	-3.6406	-9.2229	13.4512	-63.3071	16.3300	 
  1614	10.1623	-3.5887	-9.2229	13.4512	-59.9466	16.9258	 
  1615	10.0500	-3.5843	-9.2229	13.4512	-63.1738	16.0558	 
  1616	 9.9726	-3.6307	-20.1315	29.3616	-64.3441	15.8508	 
  1617	 9.8603	-3.6263	-9.2229	13.4512	-63.5481	16.0441	 
  1618	 9.7441	-3.6958	-9.2229	13.4512	-65.1315	15.8042	 
  1619	 9.4073	-3.6826	-9.2229	13.4512	-67.1711	15.4328	 
  1620	 9.1788	-3.7477	-9.2229	13.4512	-68.0101	15.1429	 
  1621	 9.1401	-3.7709	-9.2229	13.4512	-68.8579	14.7063	 
  1622	 9.8177	-3.7234	-20.1315	29.3616	-64.5981	15.3448	 
  1623	10.3094	-3.6440	-9.2229	13.4512	-62.2617	15.6816	 
  1624	10.0461	-3.6583	 5.7710	 7.9146	-64.6669	15.4452	 
  1625	 9.8177	-3.7234	-20.1315	29.3616	-64.4474	16.0014	 
  1626	 9.8177	-3.7234	-9.2229	13.4512	-63.6083	16.2913	 
  1627	 9.7789	-3.7466	-9.2229	13.4512	-65.8888	15.6340	 
  1628	 9.2911	-3.7521	-9.2229	13.4512	-67.7390	15.3052	 
  1629	 9.0239	-3.8405	-9.2229	13.4512	-68.5394	15.0385	 
  1630	 8.8729	-3.8593	-9.2229	13.4512	-68.9353	14.6599	 
  1631	 9.1362	-3.8449	-9.2229	13.4512	-67.1109	15.1857	 
  1632	 9.8177	-3.7234	-9.2229	13.4512	-59.5980	17.1344	 
  1633	 9.7441	-3.6958	-20.1315	29.3616	-62.4379	16.4963	 
  1634	 9.6628	-3.8162	-9.2229	13.4512	-64.8346	15.7695	 
  1635	 9.6279	-3.7654	-20.1315	29.3616	-63.1221	16.2991	 
  1636	 9.4769	-3.7842	-9.2229	13.4512	-63.7158	16.3685	 
  1637	 9.2098	-3.8725	-9.2229	13.4512	-66.1383	15.8386	 
  1638	 8.8303	-3.9564	-9.2229	13.4512	-67.0248	15.3788	 
  1639	 8.6445	-3.9244	-20.1315	29.3616	-67.4207	15.0002	 
  1640	 8.8303	-3.9564	 5.7710	 7.9146	-65.4759	15.0317	 
  1641	 9.1710	-3.8957	-5.1377	23.8250	-64.0263	12.9971	 
  1642	 8.8072	-3.6836	-9.2229	13.4512	-74.7115	 4.1234	 
  1643	 8.2070	-3.6847	-17.4698	-2.2453	-81.7426	 1.4719	 
  1644	 8.0212	-3.6527	-31.6261	-4.7021	-80.5802	 4.7161	 
  1645	 7.9903	-3.5279	-34.7638	-10.4030	-82.2453	 4.9936	 
  1646	 7.8083	-3.4219	-31.6261	-4.7021	-85.6706	 3.2972	 
  1647	 7.0959	-3.4185	-41.0612	-1.2181	-85.8254	 3.8417	 
  1648	 6.0002	-3.5731	-60.0143	-22.9694	-92.0638	 6.4076	 
  1649	 6.4725	-3.8636	-67.9530	-24.5360	-88.8539	 6.9841	 
  1650	 7.6998	-4.0602	-53.7342	-9.5828	-82.0173	 5.0594	 
  1651	 7.9050	-3.7223	-62.0287	-26.7236	-89.9689	 3.9098	 
  1652	 8.3503	-3.8139	-60.0143	-22.9694	-85.4163	 5.7147	 
  1653	 8.8768	-3.7853	-34.7638	-10.4030	-85.2142	 4.7030	 
  1654	 9.2950	-3.6781	-38.6806	 5.5869	-84.4871	 4.3596	 
  1655	 9.3376	-3.5810	-28.5140	 1.8328	-86.0021	 2.1077	 
  1656	 9.4112	-3.6086	-25.4534	 9.3989	-87.4222	 0.8329	 
  1657	 9.3415	-3.5070	-28.5140	 1.8328	-87.4695	 1.3002	 
  1658	 9.4151	-3.5346	-41.0612	-1.2181	-86.5354	 3.2043	 
  1659	10.2823	-3.4452	-38.6806	 5.5869	-80.8429	 3.4262	 
  1660	10.6231	-3.3844	-36.4976	13.4770	-80.1717	 3.4033	 
  1661	10.6192	-3.4584	-25.4534	 9.3989	-81.2387	 3.6849	 
  1662	10.5069	-3.4540	-13.3852	 4.9426	-80.6750	 4.3763	 
  1663	10.4682	-3.4772	-13.3852	 4.9426	-80.2747	 4.8282	 
  1664	10.2436	-3.4683	-13.3852	 4.9426	-81.5010	 4.9437	 
  1665	10.0578	-3.4363	-13.3852	 4.9426	-82.8219	 4.7193	 
  1666	10.0539	-3.5103	-13.3852	 4.9426	-83.6223	 4.4525	 
  1667	10.2010	-3.5655	-13.3852	 4.9426	-83.5405	 4.5723	 
  1668	10.7663	-3.5136	-13.3852	 4.9426	-78.8246	 5.3423	 
  1669	10.8437	-3.4673	-13.3852	 4.9426	-78.4674	 5.6977	 
  1670	10.7276	-3.5368	-13.3852	 4.9426	-80.1024	 5.8516	 
  1671	10.9173	-3.4949	-13.3852	 4.9426	-79.5775	 5.8827	 
  1672	10.8786	-3.5181	-13.3852	 4.9426	-79.8227	 6.1606	 
  1673	10.5417	-3.5048	-13.3852	 4.9426	-81.0016	 6.4460	 
  1674	10.3481	-3.6208	-13.3852	 4.9426	-82.1374	 6.8280	 
  1675	10.3481	-3.6208	-22.6076	18.3936	-82.4343	 6.8626	 
  1676	10.3442	-3.6948	-34.6758	22.8499	-82.6924	 6.9205	 
  1677	11.0218	-3.6473	-22.6076	18.3936	-77.7872	 7.7330	 
  1678	11.1380	-3.5777	-22.6076	18.3936	-77.0127	 8.1967	 
  1679	11.0992	-3.6009	-22.6076	18.3936	-78.2088	 8.1886	 
  1680	11.2115	-3.6053	-22.6076	18.3936	-77.7441	 8.4667	 
  1681	11.1767	-3.5545	-13.3852	 4.9426	-77.5288	 8.9495	 
  1682	10.9870	-3.5965	-22.6076	18.3936	-78.5959	 9.2311	 
  1683	10.8321	-3.6893	-13.3852	 4.9426	-79.7059	 9.4161	 
  1684	10.7198	-3.6848	-13.3852	 4.9426	-79.9297	 9.4237	 
  1685	10.6036	-3.7544	-13.3852	 4.9426	-80.3685	 9.5858	 
  1686	11.0527	-3.7721	-22.6076	18.3936	-78.0020	 9.7989	 
  1687	11.5445	-3.6926	-9.2229	13.4512	-75.0804	 9.9196	 
  1688	11.2812	-3.7069	-9.2229	13.4512	-77.4473	 7.7949	 
  1689	10.8243	-3.8372	-9.2229	13.4512	-78.9536	 5.6898	 
  1690	10.5532	-3.9996	-17.4698	-2.2453	-73.4368	 9.9124	 
  1691	10.2203	-3.9123	-28.5140	 1.8328	-75.8587	12.5685	 
  1692	10.0693	-3.9311	-28.5140	 1.8328	-89.0818	 7.5555	 
  1693	10.0267	-4.0283	-28.5140	 1.8328	-95.6441	 3.9813	 
  1694	10.0267	-4.0283	-13.3852	 4.9426	-99.0091	 2.0378	 
  1695	 9.8757	-4.0470	-13.3852	 4.9426	-99.8698	 1.3811	 
  1696	 9.4692	-3.9322	-28.5140	 1.8328	-91.4613	 7.1223	 
  1697	 9.5505	-3.8118	-53.7342	-9.5828	-88.2037	 9.7802	 
  1698	 9.7634	-4.0426	-46.0544	-12.4186	-81.3190	11.8484	 
  1699	 9.7865	-4.3154	-38.6806	 5.5869	-88.3979	 6.4784	 
  1700	 9.0588	-3.8913	-53.7342	-9.5828	-96.9470	 8.5107	 
  1701	 9.4149	-4.2513	-41.0612	-1.2181	-88.5607	10.0619	 
  1702	10.0420	-4.4491	-13.3852	 4.9426	-94.4820	 5.9512	 
  1703	10.2783	-4.2359	-9.2229	13.4512	-93.6561	 4.7466	 
  1704	10.4641	-4.2680	-20.1315	29.3616	-93.2523	 1.4489	 
  1705	10.9249	-4.0637	-5.1377	23.8250	-84.1262	 1.6025	 
  1706	11.0759	-4.0449	-5.1377	23.8250	-82.1945	 0.7767	 
  1707	10.7003	-4.0548	-5.1377	23.8250	-88.4854	-1.3609	 
  1708	10.7003	-4.0548	-5.1377	23.8250	-86.8029	-0.7077	 
  1709	10.6268	-4.0272	-5.1377	23.8250	-86.0499	-0.6109	 
  1710	10.4371	-4.0692	-5.1377	23.8250	-88.7780	-1.2528	 
  1711	10.2473	-4.1111	-5.1377	23.8250	-91.0843	-1.7131	 
  1712	 9.9840	-4.1255	-5.1377	23.8250	-92.5128	-1.8603	 
  1713	10.2434	-4.1851	-5.1377	23.8250	-88.8337	-0.2952	 
  1714	10.8087	-4.1332	-5.1377	23.8250	-79.2855	 2.5888	 
  1715	10.7352	-4.1056	-5.1377	23.8250	-82.4138	 1.4949	 
  1716	10.5842	-4.1244	-5.1377	23.8250	-84.6814	 1.0578	 
  1717	10.6577	-4.1520	-5.1377	23.8250	-83.5669	 1.5833	 
  1718	10.4719	-4.1200	-5.1377	23.8250	-85.0040	 1.2894	 
  1719	10.2822	-4.1619	-5.1377	23.8250	-87.3878	 0.7827	 
  1720	10.1312	-4.1807	-5.1377	23.8250	-89.0014	 0.6663	 
  1721	 9.9414	-4.2226	-5.1377	23.8250	-89.7371	 0.8630	 
  1722	10.4293	-4.2171	 5.7710	 7.9146	-82.8652	 3.3484	 
  1723	10.8048	-4.2072	-5.1377	23.8250	-78.7086	 4.7747	 
  1724	10.7700	-4.1564	-5.1377	23.8250	-80.3093	 4.2412	 
  1725	10.8436	-4.1840	-5.1377	23.8250	-80.5244	 4.3956	 
  1726	10.8823	-4.1608	-5.1377	23.8250	-80.6018	 4.3493	 
  1727	10.8048	-4.2072	-5.1377	23.8250	-82.0820	 3.9588	 
  1728	10.6538	-4.2260	-5.1377	23.8250	-83.8978	 3.5797	 
  1729	10.5377	-4.2956	-5.1377	23.8250	-83.8719	 4.0200	 
  1730	10.3131	-4.2867	-5.1377	23.8250	-84.8787	 4.0544	 
  1731	10.7274	-4.2536	-5.1377	23.8250	-79.5258	 6.1260	 
  1732	11.0681	-4.1929	-5.1377	23.8250	-76.6730	 6.9842	 
  1733	10.9907	-4.2393	-5.1377	23.8250	-78.5060	 6.3117	 
  1734	10.9519	-4.2625	-5.1377	23.8250	-79.1299	 6.5046	 
  1735	10.6926	-4.2028	-9.2229	13.4512	-79.6979	 6.3769	 
  1736	10.4293	-4.2171	-5.1377	23.8250	-82.1419	 6.1174	 
  1737	10.1273	-4.2547	-20.1315	29.3616	-84.5772	 6.0046	 
  1738	 9.9763	-4.2735	-5.1377	23.8250	-87.2364	 5.2623	 
  1739	 9.5581	-4.3806	-5.1377	23.8250	-92.5294	 1.6692	 
  1740	 9.5155	-4.4778	-9.2229	13.4512	-95.9077	-2.4059	 
  1741	10.0808	-4.4259	-22.6076	18.3936	-88.8079	-0.4921	 
  1742	 9.9724	-4.3474	-13.3852	 4.9426	-92.4131	 2.3759	 
  1743	 9.6394	-4.2602	-25.4534	 9.3989	-95.0585	 6.3140	 
  1744	 8.3579	-4.3827	-48.1157	 9.0709	-94.2403	10.0601	 
  1745	 7.6492	-5.0221	-49.8381	 2.0228	-93.4621	 6.7740	 
  1746	 7.4439	-5.3601	-38.6806	 5.5869	-96.9910	 3.3167	 
  1747	 6.6000	-5.0055	-59.4122	-1.3014	-102.0631	 7.2887	 
  1748	 7.1458	-5.3236	-38.6806	 5.5869	-97.5841	 6.5719	 
  1749	 9.1359	-5.2784	-22.6076	18.3936	-98.1310	 4.2624	 
  1750	11.2616	-4.7937	-22.6076	18.3936	-81.7074	 5.2448	 
  1751	11.9082	-4.6214	-25.4534	 9.3989	-80.6577	 4.6698	 
  1752	11.7650	-4.4922	-34.6758	22.8499	-81.2473	 4.1753	 
  1753	11.7688	-4.4182	-22.6076	18.3936	-80.5459	 4.0288	 
  1754	11.5404	-4.4834	-34.6758	22.8499	-81.2861	 3.5149	 
  1755	11.2384	-4.5209	-25.4534	 9.3989	-82.7879	 2.7575	 
  1756	11.1261	-4.5165	-22.6076	18.3936	-83.6055	 2.1973	 
  1757	10.9790	-4.4612	-34.6758	22.8499	-84.0530	 2.2126	 
  1758	11.2771	-4.4977	-13.3852	 4.9426	-80.7397	 3.2757	 
  1759	11.7688	-4.4182	-22.6076	18.3936	-76.5100	 4.0378	 
  1760	11.6914	-4.4646	-22.6076	18.3936	-78.5325	 2.6856	 
  1761	11.7301	-4.4414	-22.6076	18.3936	-79.3975	 1.9554	 
  1762	11.6953	-4.3906	-22.6076	18.3936	-78.6445	 2.0522	 
  1763	11.5056	-4.4326	-22.6076	18.3936	-79.9010	 1.6541	 
  1764	11.2036	-4.4701	-22.6076	18.3936	-81.5447	 1.0241	 
  1765	11.1300	-4.4425	-22.6076	18.3936	-83.2445	 0.0774	 
  1766	10.9016	-4.5076	-22.6076	18.3936	-84.5440	-0.4173	 
  1767	10.8977	-4.5816	-22.6076	18.3936	-83.0465	 0.2667	 
  1768	11.4668	-4.4557	-22.6076	18.3936	-76.0800	 2.4547	 
  1769	11.4281	-4.4789	-9.2229	13.4512	-77.6550	 1.7243	 
  1770	11.3933	-4.4281	-9.2229	13.4512	-78.8856	 1.1292	 
  1771	11.5443	-4.4094	-9.2229	13.4512	-78.3951	 1.2105	 
  1772	11.5056	-4.4326	-9.2229	13.4512	-79.7893	 0.3759	 
  1773	11.2423	-4.4469	-22.6076	18.3936	-81.9193	-0.2620	 
  1774	11.0526	-4.4889	-22.6076	18.3936	-82.8530	-0.2546	 
  1775	10.7506	-4.5264	-9.2229	13.4512	-83.1455	-0.1466	 
  1776	10.5221	-4.5915	-9.2229	13.4512	-83.9416	-0.3399	 
  1777	11.0099	-4.5860	-9.2229	13.4512	-79.1094	 1.1368	 
  1778	11.4242	-4.5529	-9.2229	13.4512	-75.8908	 1.8600	 
  1779	11.1997	-4.5441	-9.2229	13.4512	-78.4038	 1.0637	 
  1780	11.1222	-4.5905	 5.7710	 7.9146	-79.1266	 0.8434	 
  1781	11.1222	-4.5905	-9.2229	13.4512	-78.5587	 0.9710	 
  1782	10.9325	-4.6324	-9.2229	13.4512	-80.0174	 0.3102	 
  1783	10.7428	-4.6744	 5.7710	 7.9146	-81.6138	-0.1499	 
  1784	10.4795	-4.6887	-9.2229	13.4512	-82.4012	-0.1965	 
  1785	10.3285	-4.7075	 5.7710	 7.9146	-82.7024	-0.2352	 
  1786	10.3982	-4.8091	-20.1315	29.3616	-82.5131	-0.1927	 
  1787	11.0409	-4.7108	-20.1315	29.3616	-75.5940	 1.8254	 
  1788	11.0757	-4.7617	-5.1377	23.8250	-77.6853	 0.5735	 
  1789	10.5531	-4.7163	-5.1377	23.8250	-81.9668	-1.0691	 
  1790	10.2084	-4.8511	11.8309	17.5592	-79.6692	-1.3927	 
  1791	 9.7554	-4.9074	-13.3852	 4.9426	-85.8835	-7.9442	 
  1792	 9.4921	-4.9217	-13.3852	 4.9426	-90.7236	-5.7446	 
  1793	 9.3063	-4.8897	-25.4534	 9.3989	-94.8020	-2.6643	 
  1794	 8.9695	-4.8764	-25.4534	 9.3989	-97.3409	-4.5381	 
  1795	 8.9695	-4.8764	-36.4976	13.4770	-99.6778	-7.4235	 
  1796	 9.1514	-4.9825	-17.4698	-2.2453	-100.4739	-7.6168	 
  1797	 9.2793	-4.6909	-48.1157	 9.0709	-100.7748	-6.3812	 
  1798	 8.8881	-4.9968	-43.5407	-7.1620	-98.8216	-7.4773	 
  1799	 8.8996	-5.4916	-28.5140	 1.8328	-97.0015	-7.0249	 
  1800	 9.0391	-4.9780	-51.7324	-4.1372	-99.5051	-3.8514	 
  1801	 9.7011	-5.2266	-38.6806	 5.5869	-97.1391	-6.8241	 
  1802	10.8278	-5.1968	-25.4534	 9.3989	-96.3304	-7.6850	 
  1803	11.2886	-4.9925	-36.4976	13.4770	-88.7784	-3.8015	 
  1804	11.5248	-4.7793	-36.4976	13.4770	-86.0935	-3.2562	 
  1805	11.6797	-4.6866	-28.5140	 1.8328	-83.7956	-2.3054	 
  1806	12.2837	-4.6115	-28.5140	 1.8328	-77.3885	-0.0983	 
  1807	12.2489	-4.5607	-28.5140	 1.8328	-78.0383	-0.3457	 
  1808	12.0631	-4.5287	-28.5140	 1.8328	-79.0280	-0.6549	 
  1809	12.1753	-4.5331	-28.5140	 1.8328	-78.5331	-0.5003	 
  1810	11.8385	-4.5198	-28.5140	 1.8328	-78.7569	-0.4927	 
  1811	11.6101	-4.5850	-28.5140	 1.8328	-79.9746	-0.8676	 
  1812	11.4978	-4.5805	-28.5140	 1.8328	-81.0460	-1.2966	 
  1813	11.4203	-4.6269	-28.5140	 1.8328	-81.3516	-1.4087	 
  1814	11.2654	-4.7197	-28.5140	 1.8328	-81.0374	-1.1499	 
  1815	11.7959	-4.6170	-36.4976	13.4770	-75.8051	 0.1416	 
  1816	11.9856	-4.5750	-25.4534	 9.3989	-76.5883	-0.4688	 
  1817	11.9856	-4.5750	-36.4976	13.4770	-77.8878	-0.9635	 
  1818	11.9856	-4.5750	-25.4534	 9.3989	-77.2854	-0.8861	 
  1819	11.7998	-4.5430	-25.4534	 9.3989	-77.6297	-1.0213	 
  1820	11.6101	-4.5850	-36.4976	13.4770	-78.8560	-1.5431	 
  1821	11.5713	-4.6082	-25.4534	 9.3989	-79.8931	-2.0223	 
  1822	11.4203	-4.6269	-36.4976	13.4770	-80.2674	-2.0340	 
  1823	11.1919	-4.6921	-25.4534	 9.3989	-80.4868	-1.9529	 
  1824	11.6797	-4.6866	-17.4698	-2.2453	-75.1899	-0.1980	 
  1825	11.9082	-4.6214	-25.4534	 9.3989	-74.3767	-0.3483	 
  1826	12.0205	-4.6258	-25.4534	 9.3989	-75.9947	-1.1753	 
  1827	12.0979	-4.5795	-17.4698	-2.2453	-75.8914	-1.3258	 
  1828	11.9082	-4.6214	-25.4534	 9.3989	-75.8957	-1.3992	 
  1829	11.4939	-4.6545	-25.4534	 9.3989	-76.9198	-1.6583	 
  1830	11.3777	-4.7241	-25.4534	 9.3989	-77.8665	-1.8710	 
  1831	11.4164	-4.7009	-25.4534	 9.3989	-78.1031	-2.0835	 
  1832	11.4126	-4.7749	-25.4534	 9.3989	-78.4474	-2.2187	 
  1833	11.8695	-4.6446	-25.4534	 9.3989	-73.7744	-0.9081	 
  1834	12.0205	-4.6258	-25.4534	 9.3989	-73.1118	-1.0778	 
  1835	11.9043	-4.6954	-25.4534	 9.3989	-74.4888	-1.6189	 
  1836	11.9391	-4.7462	-17.4698	-2.2453	-74.5749	-1.8120	 
  1837	11.3661	-4.9461	-9.2229	13.4512	-79.7516	-4.6984	 
  1838	10.3478	-5.0543	11.8309	17.5592	-91.3359	-12.9777	 
  1839	 9.9683	-5.1382	 5.7710	 7.9146	-98.4233	-17.2201	 
  1840	 9.7477	-5.0554	-9.2229	13.4512	-99.0339	-15.5328	 
  1841	 9.6741	-5.0278	-0.0004	 0.0002	-97.6391	-11.5123	 
  1842	10.0148	-4.9670	-9.2229	13.4512	-96.1156	-9.7509	 
  1843	10.9440	-5.1272	-5.1377	23.8250	-88.0871	-11.1037	 
  1844	11.0253	-5.0068	-5.1377	23.8250	-88.6851	-11.1078	 
  1845	 9.8212	-5.0830	-25.4534	 9.3989	-85.1598	-3.2636	 
  1846	 9.6702	-5.1018	-31.6261	-4.7021	-87.1562	-2.9012	 
  1847	 9.7321	-5.3514	-17.4698	-2.2453	-85.9001	-4.4146	 
  1848	 9.7204	-5.5733	-9.2229	13.4512	-93.5251	-8.2710	 
  1849	 8.2260	-5.4650	-41.0612	-1.2181	-90.6237	-0.8711	 
  1850	 8.2917	-5.6406	-25.4534	 9.3989	-90.0473	-1.2339	 
  1851	 8.4737	-5.7467	-9.2229	13.4512	-92.3625	-3.1153	 
  1852	 9.9876	-5.4850	-9.2229	13.4512	-81.1797	-2.9340	 
  1853	10.9788	-5.1780	-9.2229	13.4512	-78.7016	-3.9990	 
  1854	11.2460	-5.0897	 5.7710	 7.9146	-81.6149	-5.8845	 
  1855	11.5558	-4.9041	 5.7710	 7.9146	-81.8086	-6.6376	 
  1856	11.5984	-4.8070	 5.7710	 7.9146	-82.4499	-7.3754	 
  1857	11.4474	-4.8257	-5.1377	23.8250	-85.6039	-8.2723	 
  1858	11.1802	-4.9141	-5.1377	23.8250	-87.7338	-8.9102	 
  1859	10.8782	-4.9516	 5.7710	 7.9146	-88.3793	-9.0842	 
  1860	10.6885	-4.9936	-5.1377	23.8250	-89.0935	-9.1578	 
  1861	11.0292	-4.9328	-5.1377	23.8250	-83.3964	-6.9509	 
  1862	11.4435	-4.8997	-5.1377	23.8250	-75.6769	-4.6661	 
  1863	11.3312	-4.8953	-5.1377	23.8250	-78.3835	-5.5784	 
  1864	11.2925	-4.9185	-5.1377	23.8250	-79.6140	-5.5363	 
  1865	11.2925	-4.9185	-5.1377	23.8250	-79.0848	-5.4318	 
  1866	11.0641	-4.9836	-5.1377	23.8250	-81.2792	-5.8960	 
  1867	10.9518	-4.9792	-5.1377	23.8250	-83.8524	-6.4452	 
  1868	10.8743	-5.0256	-5.1377	23.8250	-85.3971	-6.6619	 
  1869	10.8395	-4.9748	-5.1377	23.8250	-86.3824	-6.8978	 
  1870	10.6885	-4.9936	 5.7710	 7.9146	-87.4753	-7.0565	 
  1871	11.0641	-4.9836	-5.1377	23.8250	-78.2282	-3.5741	 
  1872	11.2886	-4.9925	-5.1377	23.8250	-75.2291	-2.7699	 
  1873	11.2151	-4.9649	-5.1377	23.8250	-78.7403	-4.0222	 
  1874	11.3661	-4.9461	-5.1377	23.8250	-78.9253	-3.9914	 
  1875	11.2925	-4.9185	-5.1377	23.8250	-78.7403	-4.0222	 
  1876	11.0641	-4.9836	-5.1377	23.8250	-80.9692	-4.4362	 
  1877	10.8356	-5.0488	-5.1377	23.8250	-82.9313	-4.7612	 
  1878	10.7233	-5.0444	 5.7710	 7.9146	-83.6886	-4.9313	 
  1879	10.7582	-5.0952	 5.7710	 7.9146	-84.6051	-5.2676	 
  1880	10.7969	-5.0720	-5.1377	23.8250	-83.3787	-4.7459	 
  1881	11.3622	-5.0201	-5.1377	23.8250	-73.9037	-1.8349	 
  1882	11.4009	-4.9969	-5.1377	23.8250	-76.5888	-3.0175	 
  1883	11.3234	-5.0433	-5.1377	23.8250	-78.9726	-3.5241	 
  1884	11.3273	-4.9693	-5.1377	23.8250	-77.7118	-3.0526	 
  1885	11.2847	-5.0665	-5.1377	23.8250	-79.3469	-3.5359	 
  1886	10.9866	-5.0300	-5.1377	23.8250	-81.6575	-4.0695	 
  1887	10.9053	-5.1504	-5.1377	23.8250	-83.1033	-4.5102	 
  1888	10.5258	-5.2343	-5.1377	23.8250	-86.8771	-6.4153	 
  1889	 9.9140	-5.4574	-5.1377	23.8250	-94.9025	-10.7237	 
  1890	 9.7243	-5.4993	-9.2229	13.4512	-96.4522	-14.8368	 
  1891	10.2548	-5.3967	-5.4015	-6.7016	-84.5197	-8.8975	 
  1892	10.1425	-5.3922	-17.4698	-2.2453	-85.0915	-6.5498	 
  1893	10.0302	-5.3878	-28.5140	 1.8328	-86.3649	-5.3300	 
  1894	10.1851	-5.2950	-17.4698	-2.2453	-85.7797	-4.9089	 
  1895	10.0728	-5.2906	-25.4534	 9.3989	-88.4042	-4.4270	 
  1896	 8.7099	-5.5335	-46.0544	-12.4186	-90.2740	 5.7093	 
  1897	 8.4350	-5.7699	-57.9439	-18.8985	-92.6062	 4.8087	 
  1898	 8.9615	-5.7412	-46.0544	-12.4186	-91.5832	-0.6668	 
  1899	 8.9615	-5.7412	-34.7638	-10.4030	-101.1960	-4.0141	 
  1900	 9.3875	-5.4861	-53.7342	-9.5828	-98.0329	-0.4217	 
  1901	11.0059	-5.3768	-25.4534	 9.3989	-88.8991	-4.5816	 
  1902	12.2991	-5.0323	-13.3852	 4.9426	-83.2580	-3.3286	 
  1903	12.2682	-4.9075	-13.3852	 4.9426	-83.5076	-3.7612	 
  1904	12.2295	-4.9307	-25.4534	 9.3989	-82.8967	-4.1742	 
  1905	12.0088	-4.8478	-13.3852	 4.9426	-83.8521	-5.1708	 
  1906	11.8230	-4.8158	-13.3852	 4.9426	-85.8788	-5.9593	 
  1907	11.6332	-4.8578	-22.6076	18.3936	-87.3246	-6.4000	 
  1908	11.5597	-4.8301	-13.3852	 4.9426	-87.9959	-7.0142	 
  1909	11.5209	-4.8533	-13.3852	 4.9426	-89.0803	-7.6633	 
  1910	11.5597	-4.8301	-22.6076	18.3936	-86.6363	-6.7666	 
  1911	11.9352	-4.8202	-13.3852	 4.9426	-79.7860	-4.6482	 
  1912	11.8578	-4.8666	-13.3852	 4.9426	-82.0494	-5.6491	 
  1913	11.7842	-4.8390	-22.6076	18.3936	-83.4177	-6.0434	 
  1914	11.8230	-4.8158	-13.3852	 4.9426	-82.3635	-5.9079	 
  1915	11.6719	-4.8346	-22.6076	18.3936	-83.8524	-6.4452	 
  1916	11.4822	-4.8765	-22.6076	18.3936	-85.7026	-6.7740	 
  1917	11.3351	-4.8213	-22.6076	18.3936	-86.4642	-7.0176	 
  1918	11.2577	-4.8677	-22.6076	18.3936	-86.4512	-6.7974	 
  1919	10.9905	-4.9560	-22.6076	18.3936	-87.1913	-6.6741	 
  1920	11.3699	-4.8721	-22.6076	18.3936	-80.3495	-4.0652	 
  1921	11.7455	-4.8622	-0.0004	 0.0002	-77.4709	-3.4039	 
  1922	11.7881	-4.7650	-22.6076	18.3936	-79.8118	-4.4512	 
  1923	11.9004	-4.7694	-9.2229	13.4512	-79.8849	-4.4242	 
  1924	11.7881	-4.7650	-9.2229	13.4512	-79.4933	-4.1190	 
  1925	11.3699	-4.8721	-9.2229	13.4512	-81.0466	-4.4825	 
  1926	11.1454	-4.8633	-22.6076	18.3936	-82.7592	-5.0121	 
  1927	11.2189	-4.8909	-9.2229	13.4512	-83.4606	-5.5028	 
  1928	11.0679	-4.9096	-22.6076	18.3936	-84.7257	-6.0477	 
  1929	10.8782	-4.9516	-9.2229	13.4512	-86.4383	-6.5773	 
  1930	11.3699	-4.8721	-22.6076	18.3936	-80.3281	-4.3355	 
  1931	11.7842	-4.8390	-22.6076	18.3936	-77.0794	-3.7359	 
  1932	11.7107	-4.8114	-13.3852	 4.9426	-78.9512	-4.4316	 
  1933	11.7494	-4.7882	-9.2229	13.4512	-79.2137	-4.4472	 
  1934	11.7107	-4.8114	-0.0004	 0.0002	-79.0287	-4.4780	 
  1935	11.5209	-4.8533	-22.6076	18.3936	-80.8918	-5.0270	 
  1936	11.3699	-4.8721	-9.2229	13.4512	-83.1380	-5.7344	 
  1937	11.1802	-4.9141	-0.0004	 0.0002	-84.5537	-6.2987	 
  1938	10.8743	-5.0256	-5.1377	23.8250	-88.9299	-8.2811	 
  1939	10.4910	-5.1835	-5.1377	23.8250	-95.1264	-11.9904	 
  1940	10.2664	-5.1747	-9.2229	13.4512	-91.7144	-11.7884	 
  1941	10.5258	-5.2343	-25.4534	 9.3989	-84.9544	-9.2993	 
  1942	10.7504	-5.2432	-25.4534	 9.3989	-82.8331	-8.8082	 
  1943	10.6381	-5.2387	-13.3852	 4.9426	-86.9034	-8.7670	 
  1944	 9.6469	-5.5457	-28.5140	 1.8328	-96.6104	-9.2684	 
  1945	 9.4184	-5.6109	-31.6261	-4.7021	-99.4035	-12.9224	 
  1946	 9.4106	-5.7589	-28.5140	 1.8328	-98.8058	-14.8299	 
  1947	 8.8337	-6.0327	-31.6261	-4.7021	-100.5047	-11.3163	 
  1948	 8.6556	-5.8527	-34.7638	-10.4030	-97.1868	-8.9056	 
  1949	 9.3719	-5.7821	-17.4698	-2.2453	-98.9556	-11.0262	 
  1950	10.2160	-5.4198	-17.4698	-2.2453	-95.3412	-9.9244	 
  1951	10.9788	-5.1780	-25.4534	 9.3989	-92.2562	-10.2015	 
  1952	12.0397	-4.9726	-25.4534	 9.3989	-82.4069	-7.9160	 
  1953	12.3069	-4.8843	-25.4534	 9.3989	-82.3984	-8.4064	 
  1954	12.3843	-4.8379	-25.4534	 9.3989	-83.4053	-9.0092	 
  1955	12.4618	-4.7915	-17.4698	-2.2453	-82.6954	-9.0089	 
  1956	12.4270	-4.7407	-25.4534	 9.3989	-83.0956	-9.4609	 
  1957	12.1676	-4.6811	-25.4534	 9.3989	-84.5802	-9.9248	 
  1958	12.0901	-4.7275	-25.4534	 9.3989	-85.1825	-10.0022	 
  1959	12.0901	-4.7275	-17.4698	-2.2453	-85.5138	-9.9174	 
  1960	11.9043	-4.6954	-25.4534	 9.3989	-86.1119	-9.9214	 
  1961	11.7146	-4.7374	-25.4534	 9.3989	-86.6713	-9.9023	 
  1962	12.2450	-4.6347	-25.4534	 9.3989	-80.5740	-7.8806	 
  1963	12.5470	-4.5972	-25.4534	 9.3989	-79.7608	-8.0310	 
  1964	12.4696	-4.6435	-17.4698	-2.2453	-81.1635	-8.3751	 
  1965	12.3921	-4.6899	-25.4534	 9.3989	-80.8107	-8.0931	 
  1966	12.1715	-4.6071	-25.4534	 9.3989	-80.8193	-8.2399	 
  1967	12.0166	-4.6998	-25.4534	 9.3989	-82.1145	-8.6612	 
  1968	11.8307	-4.6678	-17.4698	-2.2453	-83.0654	-8.9473	 
  1969	11.8268	-4.7418	-17.4698	-2.2453	-83.2548	-8.9898	 
  1970	11.6410	-4.7098	-25.4534	 9.3989	-83.6334	-9.0749	 
  1971	11.4552	-4.6777	-17.4698	-2.2453	-84.2014	-9.2025	 
  1972	12.0940	-4.6535	-17.4698	-2.2453	-79.3562	-7.5057	 
  1973	12.3186	-4.6623	-17.4698	-2.2453	-78.3881	-7.5633	 
  1974	12.2063	-4.6579	-17.4698	-2.2453	-79.7264	-8.0812	 
  1975	12.2102	-4.5839	-17.4698	-2.2453	-79.4165	-7.8957	 
  1976	12.0940	-4.6535	-17.4698	-2.2453	-79.4209	-7.9691	 
  1977	11.9430	-4.6722	-17.4698	-2.2453	-80.5138	-8.1278	 
  1978	11.7572	-4.6402	-17.4698	-2.2453	-81.1248	-8.3519	 
  1979	11.5674	-4.6822	-17.4698	-2.2453	-81.4948	-8.2903	 
  1980	11.4164	-4.7009	-17.4698	-2.2453	-81.7616	-8.3792	 
  1981	11.2267	-4.7429	-17.4698	-2.2453	-82.3726	-8.6034	 
  1982	11.7494	-4.7882	-17.4698	-2.2453	-78.2806	-7.6405	 
  1983	11.3622	-5.0201	-9.2229	13.4512	-84.1931	-10.9673	 
  1984	11.0950	-5.1084	 5.7710	 7.9146	-90.1060	-16.2057	 
  1985	11.2577	-4.8677	-9.2229	13.4512	-87.4379	-14.0423	 
  1986	11.2616	-4.7937	-9.2229	13.4512	-86.1337	-11.5626	 
  1987	 9.8366	-5.5038	-25.4534	 9.3989	-90.9519	-7.0847	 
  1988	 8.9654	-5.6672	-38.6806	 5.5869	-94.1706	-8.4450	 
  1989	 8.5782	-5.8991	-21.4595	-8.4562	-94.8383	-12.8089	 
  1990	 8.3536	-5.8902	-25.4534	 9.3989	-97.6609	-13.1536	 
  1991	 7.4825	-6.0537	-25.4534	 9.3989	-99.0284	-9.0877	 
  1992	 7.4167	-5.8781	-13.3852	 4.9426	-98.0092	-12.0878	 
  1993	 9.0041	-5.6440	-9.2229	13.4512	-94.7012	-16.1956	 
  1994	10.2664	-5.1747	-9.2229	13.4512	-87.6788	-13.6909	 
  1995	10.4562	-5.1327	-13.3852	 4.9426	-86.8956	-13.0805	 
  1996	10.5723	-5.0631	-13.3852	 4.9426	-86.0823	-12.5937	 
  1997	10.5375	-5.0123	-13.3852	 4.9426	-86.3060	-12.5860	 
  1998	10.4988	-5.0355	-22.6076	18.3936	-87.5840	-12.7139	 
  1999	10.4252	-5.0079	-22.6076	18.3936	-88.0916	-12.4515	 
  2000	10.2394	-4.9759	-13.3852	 4.9426	-88.2637	-12.2005	 
  2001	 9.8987	-5.0366	-9.2229	13.4512	-88.5905	-11.4051	 
  2002	10.8008	-4.9980	-22.6076	18.3936	-83.4613	-9.3258	 
  2003	11.1415	-4.9373	-0.0004	 0.0002	-81.6499	-9.0202	 
  2004	11.0641	-4.9836	-9.2229	13.4512	-83.1603	-9.9243	 
  2005	10.8395	-4.9748	-0.0004	 0.0002	-83.4271	-10.0132	 
  2006	10.6459	-5.0907	-9.2229	13.4512	-83.4615	-9.9630	 
  2007	10.3478	-5.0543	-9.2229	13.4512	-84.9072	-10.4037	 
  2008	10.1232	-5.0454	-0.0004	 0.0002	-86.4219	-10.7441	 
  2009	10.0458	-5.0918	-13.3852	 4.9426	-87.0974	-10.7945	 
  2010	 9.9335	-5.0874	-0.0004	 0.0002	-87.4804	-10.9529	 
  2011	 9.8987	-5.0366	-9.2229	13.4512	-88.1128	-10.9068	 
  2012	10.6149	-4.9659	-9.2229	13.4512	-82.1060	-9.1516	 
  2013	10.7659	-4.9472	-9.2229	13.4512	-81.4304	-9.1012	 
  2014	10.7272	-4.9704	-9.2229	13.4512	-82.4889	-9.3101	 
  2015	10.5801	-4.9151	-9.2229	13.4512	-82.2436	-8.9509	 
  2016	10.5414	-4.9383	-9.2229	13.4512	-82.6266	-9.1093	 
  2017	10.2820	-4.8787	-0.0004	 0.0002	-83.8830	-9.5075	 
  2018	10.1271	-4.9714	-9.2229	13.4512	-85.1653	-9.7087	 
  2019	 9.9761	-4.9902	-22.6076	18.3936	-85.4923	-9.5505	 
  2020	 9.7864	-5.0322	-9.2229	13.4512	-85.9698	-9.4116	 
  2021	 9.5231	-5.0465	-9.2229	13.4512	-86.8433	-9.6513	 
  2022	10.1232	-5.0454	-9.2229	13.4512	-82.5748	-8.2288	 
  2023	10.5414	-4.9383	-9.2229	13.4512	-80.1480	-7.6256	 
  2024	10.4639	-4.9847	-0.0004	 0.0002	-81.4087	-8.0972	 
  2025	10.5027	-4.9615	-9.2229	13.4512	-81.7056	-8.0625	 
  2026	10.4678	-4.9107	-9.2229	13.4512	-81.4001	-7.9504	 
  2027	10.2433	-4.9019	-9.2229	13.4512	-82.6178	-8.3254	 
  2028	10.1271	-4.9714	-9.2229	13.4512	-83.9818	-8.6464	 
  2029	10.0148	-4.9670	-9.2229	13.4512	-84.6617	-8.7702	 
  2030	 9.8638	-4.9858	-9.2229	13.4512	-85.1608	-8.9982	 
  2031	 9.7477	-5.0554	-9.2229	13.4512	-85.8493	-9.2687	 
  2032	10.3555	-4.9063	-9.2229	13.4512	-80.6772	-7.7301	 
