0.1045	-0.1528	-25.174	30.0239	-0.7744	-0.4634
0.0348	-0.0512	13.3845	-4.9425	0.1722	-0.2507
0.0348	-0.0512	2.3502	-16.5736	0.3142	-0.3781
0.0348	-0.0512	9.9792	-14.5553	0.056	-0.3202
0.0348	-0.0512	-0.9479	-5.3102	-0.1634	-0.2392
0.0696	-0.102	-2.089	-10.099	-0.2796	-0.3088
0.0696	-0.102	23.364	-19.4977	-0.3183	-0.3319
0.0696	-0.102	-29.6758	24.0021	-0.0989	-0.413
0.0696	-0.102	18.5807	-12.5213	-0.172	-0.386
0.0696	-0.102	6.4797	-22.5965	-0.3527	-0.2817
0.0696	-0.102	5.1959	-7.5788	-0.4689	-0.3513
0.0696	-0.102	23.364	-19.4977	-0.5464	-0.3977
0.1045	-0.1528	-0.0003	-0.0001	-0.8733	-0.2394
0.1045	-0.1528	11.7055	-9.9825	-0.7314	-0.3668
0.1045	-0.1528	-7.7208	-8.0194	-0.8088	-0.4132
0.1045	-0.1528	16.4029	6.9872	-0.8088	-0.4132
0.1045	-0.1528	30.6781	-22.1985	-0.8045	-0.3398
0.1045	-0.1528	0.8312	5.8776	-0.5076	-0.3745
0.0696	-0.102	18.5807	-12.5213	-0.1333	-0.3628
0.0348	-0.0512	14.4184	-21.0299	0.056	-0.3202
0.0348	-0.0512	35.7868	-37.6165	0.056	-0.3202
0.0696	-0.102	57.8351	-53.4421	-0.2021	-0.2624
0.0696	-0.102	-0.0003	-0.0001	-0.3871	-0.2316
0.0696	-0.102	-6.8723	-3.1226	-0.2408	-0.2856
0.0696	-0.102	50.9888	-34.5338	-0.3097	-0.1852
0.0696	-0.102	0.8478	-20.5169	-0.2021	-0.2624
0.0696	-0.102	9.9792	-14.5553	-0.2365	-0.2122
0.0696	-0.102	26.5475	-45.4124	-0.4215	-0.1814
0.0696	-0.102	3.8354	-12.2867	-0.4302	-0.3281
0.1045	-0.1528	64.7616	-34.7841	-0.5033	-0.3011
0.0696	-0.102	20.6985	-7.6433	-0.5377	-0.2509
0.1045	-0.1528	-5.6783	8.2813	-0.6109	-0.2239
0.1045	-0.1528	3.8354	-12.2867	-0.8002	-0.2664
0.1045	-0.1528	-7.7208	-8.0194	-0.727	-0.2935
0.0696	-0.102	26.0153	-37.9441	-0.4215	-0.1814
0.0348	-0.0512	50.9888	-34.5338	-0.0816	-0.1195
0.0348	-0.0512	24.5946	3.9623	0.1034	-0.1503
0.0348	-0.0512	-0.0003	-0.0001	-0.0773	-0.0461
0.0348	-0.0512	-7.7208	-8.0194	-0.0429	-0.0963
0.0348	-0.0512	9.9792	-14.5553	-0.1548	-0.0925
0.0348	-0.0512	13.3845	-4.9425	-0.1591	-0.1658
0.0348	-0.0512	16.4888	-16.959	-0.0816	-0.1195
0.0348	-0.0512	0.8312	5.8776	-0.1504	-0.0191
0.0348	-0.0512	27.8032	-25.9723	-0.0128	-0.2198
0.0348	-0.0512	-12.0685	4.4562	-0.4516	-0.0578
0.0348	-0.0512	3.8354	-12.2867	-0.4172	-0.108
0.0696	-0.102	6.5092	-2.4038	-0.4559	-0.1312
0.0696	-0.102	41.7663	-21.0827	-0.5678	-0.1273
0.0696	-0.102	25.0574	-29.4564	-0.5334	-0.1775
0.0696	-0.102	-11.8221	10.55	-0.7571	-0.1699
0.0696	-0.102	6.4797	-22.5965	-0.641	-0.1003
0.0348	-0.0512	-5.6783	8.2813	-0.1203	-0.1426
0	-0.0004	5.1959	-7.5788	0.1809	-0.1039
0	-0.0004	-17.7465	12.7376	0.2196	-0.0808
0	-0.0004	-0.0003	-0.0001	0.0002	0.0003
0.0348	-0.0512	26.0153	-37.9441	-0.1504	-0.0191
0.0348	-0.0512	25.8948	-15.222	-0.0773	-0.0461
0.0348	-0.0512	-17.7465	12.7376	0.0002	0.0003
0.0348	-0.0512	-6.1441	2.2686	0.0389	0.0235
0.0348	-0.0512	-31.0984	32.2115	-0.1461	0.0543
0.0348	-0.0512	-32.9104	6.4922	-0.1117	0.0041
0.0348	-0.0512	3.8354	-12.2867	-0.258	0.0581
0.0348	-0.0512	3.8354	-12.2867	-0.3742	-0.0114
0.0348	-0.0512	-29.6758	24.0021	-0.3354	0.0117
0.0348	-0.0512	-12.0685	4.4562	-0.5161	0.116
0.0696	-0.102	33.5745	-18.0579	-0.5549	0.0928
0.0696	-0.102	6.5092	-2.4038	-0.3742	-0.0114
0.0348	-0.0512	11.7055	-9.9825	0.0432	0.0968
0	-0.0004	23.364	-19.4977	0.2713	0.1626
0	-0.0004	2.3502	-16.5736	0.5251	0.0313
0	-0.0004	-5.4662	15.0625	0.1981	0.1896
0	-0.0004	55.3265	-31.3001	0.1207	0.1432
0.0348	-0.0512	-6.1441	2.2686	0.1551	0.093
0.0348	-0.0512	9.9792	-14.5553	0.1163	0.0698
0.0348	-0.0512	1.6686	20.112	0.125	0.2166
0.0348	-0.0512	22.7003	-2.1977	0.1207	0.1432
0.0348	-0.0512	62.5857	-51.448	-0.0643	0.174
0.0348	-0.0512	3.8354	-12.2867	-0.1762	0.1779
0.0348	-0.0512	5.1959	-7.5788	-0.2881	0.1817
0.0348	-0.0512	0.8478	-20.5169	-0.4344	0.2357
0.0696	-0.102	20.9279	-23.4336	-0.3655	0.1353
0.0696	-0.102	25.0574	-29.4564	-0.5205	0.0426
0.0696	-0.102	5.1959	-7.5788	-0.4817	0.0658
0.0696	-0.102	5.1959	-7.5788	-0.4817	0.0658
0.0348	-0.0512	18.5807	-12.5213	-0.1375	0.201
0	-0.0004	1.409	12.5238	0.1637	0.2398
0	-0.0004	20.9279	-23.4336	0.0949	0.3401
0	-0.0004	14.4184	-21.0299	0.168	0.3131
0	-0.0004	-23.3784	14.8172	0.0174	0.2938
0.0348	-0.0512	35.1172	-28.6731	0.1637	0.2398
0	-0.0004	-5.6783	8.2813	0.125	0.2166
0.0348	-0.0512	28.9116	-35.0778	0.0949	0.3401
0.0348	-0.0512	-0.9479	-5.3102	0.0949	0.3401
0.0348	-0.0512	27.8032	-25.9723	0.0131	0.2204
0.0348	-0.0512	-0.9479	-5.3102	-0.0256	0.1972
0.0348	-0.0512	-18.3262	-4.1033	-0.2838	0.2551
0.0348	-0.0512	13.3845	-4.9425	-0.2881	0.1817
0.0348	-0.0512	3.8354	-12.2867	-0.4731	0.2125
0.0348	-0.0512	3.8354	-12.2867	-0.4731	0.2125
0.0696	-0.102	14.9912	-41.1452	-0.4344	0.2357
0.0696	-0.102	18.5807	-12.5213	-0.5462	0.2395
0.0696	-0.102	30.6781	-22.1985	-0.4774	0.1391
0.0348	-0.0512	16.4888	-16.959	-0.1676	0.3246
0	-0.0004	-36.7303	34.2911	0.2068	0.3363
0	-0.0004	15.0205	0.6381	0.2068	0.3363
0.0348	-0.0512	13.3845	-4.9425	0.1637	0.2398
0.0348	-0.0512	0.8312	5.8776	0.0174	0.2938
0.0348	-0.0512	15.0205	0.6381	-0.0213	0.2706
0.0348	-0.0512	1.409	12.5238	-0.0944	0.2976
0.0348	-0.0512	-13.887	-10.5779	-0.017	0.344
0.0348	-0.0512	-12.5041	-1.043	-0.0557	0.3208
0.0348	-0.0512	8.7231	9.823	-0.2063	0.3014
0.0348	-0.0512	-19.0302	27.7552	-0.2106	0.228
0.0696	-0.102	14.4184	-21.0299	-0.3913	0.3322
0.0696	-0.102	-18.1196	19.7348	-0.4301	0.3091
0.0696	-0.102	16.4029	6.9872	-0.5032	0.3361
0.0696	-0.102	9.9792	-14.5553	-0.4344	0.2357
0.0696	-0.102	-0.9479	-5.3102	-0.5462	0.2395
0.0696	-0.102	3.8354	-12.2867	-0.5806	0.2897
0.0696	-0.102	-5.4662	15.0625	-0.3225	0.2319
0.0348	-0.0512	-0.9479	-5.3102	0.0174	0.2938
0.0348	-0.0512	9.3484	17.2762	0.1035	0.4869
0.0348	-0.0512	45.3469	-16.7449	0.2154	0.4831
0.0348	-0.0512	16.2582	-30.4054	-0.0127	0.4173
0.0696	-0.102	3.8354	-12.2867	-0.1245	0.4212
0.0696	-0.102	31.9326	-31.9952	-0.0557	0.3208
0.0696	-0.102	27.8032	-25.9723	-0.1289	0.3478
0.0696	-0.102	-17.7465	12.7376	-0.3052	0.5254
0.0696	-0.102	11.7055	-9.9825	-0.2751	0.4018
0.0696	-0.102	-8.694	-12.4954	-0.4214	0.4558
0.0696	-0.102	-12.5207	25.3516	-0.4989	0.4094
0.1045	-0.1528	-11.8221	10.55	-0.5763	0.3631
0.1045	-0.1528	29.4565	-42.9631	-0.5806	0.2897
0.1045	-0.1528	20.9279	-23.4336	-0.7226	0.4171
0.1045	-0.1528	-0.0003	-0.0001	-0.6925	0.2935
0.1045	-0.1528	13.9471	-33.4878	-0.9464	0.4247
0.1045	-0.1528	6.5092	-2.4038	-0.9119	0.3746
0.1045	-0.1528	46.5496	-28.0592	-0.6151	0.3399
0.0696	-0.102	-6.8723	-3.1226	-0.387	0.4056
0.0696	-0.102	-24.0439	21.9225	-0.3095	0.452
0.0696	-0.102	22.7003	-2.1977	-0.0514	0.3941
0.0696	-0.102	0.8312	5.8776	-0.4902	0.5562
0.1045	-0.1528	32.5248	-40.3478	-0.4989	0.4094
0.1045	-0.1528	18.5807	-12.5213	-0.5376	0.3863
0.1045	-0.1528	-25.174	30.0239	-0.6064	0.4866
0.1045	-0.1528	18.5807	-12.5213	-0.4257	0.3824
0.1045	-0.1528	23.364	-19.4977	-0.6107	0.4133
0.1045	-0.1528	-6.1441	2.2686	-0.8302	0.4943
0.1045	-0.1528	9.9792	-14.5553	-0.8001	0.3707
0.1393	-0.2036	25.0574	-29.4564	-1.1658	0.5058
0.1393	-0.2036	5.1959	-7.5788	-1.1357	0.3822
0.1393	-0.2036	16.4888	-16.959	-1.1013	0.332
0.1393	-0.2036	-12.0685	4.4562	-1.1013	0.332
0.1741	-0.2545	-5.6783	8.2813	-1.2519	0.3127
0.1741	-0.2545	9.9792	-14.5553	-1.3637	0.3165
0.1741	-0.2545	3.8354	-12.2867	-1.2131	0.3358
0.1393	-0.2036	42.797	-31.5089	-0.8732	0.3977
0.1045	-0.1528	38.3578	-25.0343	-0.5376	0.3863
0.1045	-0.1528	14.4184	-21.0299	-0.6796	0.5137
0.1045	-0.1528	-36.7303	34.2911	-0.6839	0.4403
0.1393	-0.2036	5.1959	-7.5788	-0.9033	0.5213
0.1393	-0.2036	23.364	-19.4977	-1.0238	0.3784
0.1393	-0.2036	-2.2901	-27.4921	-0.9851	0.4016
0.1393	-0.2036	23.364	-19.4977	-0.9076	0.4479
0.1393	-0.2036	8.2746	-18.7612	-0.9464	0.4247
0.1741	-0.2545	1.409	12.5238	-1.097	0.4054
0.1741	-0.2545	16.4029	6.9872	-1.1357	0.3822
0.1741	-0.2545	3.8354	-12.2867	-1.3594	0.3899
0.1741	-0.2545	15.0205	0.6381	-1.4369	0.3435
0.1741	-0.2545	-44.7139	45.9353	-1.51	0.3705
0.1741	-0.2545	-0.9479	-5.3102	-1.4756	0.3203
0.209	-0.3053	5.1959	-7.5788	-1.7682	0.4283
0.209	-0.3053	25.0574	-29.4564	-1.6305	0.2276
0.209	-0.3053	20.6985	-7.6433	-1.6606	0.3511
0.1741	-0.2545	-3.2816	-14.494	-1.1357	0.3822
0.1393	-0.2036	-5.6783	8.2813	-0.8001	0.3707
0.1393	-0.2036	20.9279	-23.4336	-0.9119	0.3746
0.1393	-0.2036	20.9279	-23.4336	-1.1314	0.4556
0.1741	-0.2545	-6.1441	2.2686	-1.2432	0.4594
-153.3372	57.3749	16.4888	-16.959	-1.5057	0.4439
-153.3372	57.3749	8.2746	-18.7612	-1.467	0.4671
-153.3372	57.3749	22.402	-32.6741	-1.282	0.4362
-153.3372	57.3749	7.7064	3.3389	-1.3938	0.44
-153.3372	57.3749	-5.6783	8.2813	-1.5832	0.3975
-153.3372	57.3749	17.5401	14.2514	-1.6262	0.301
-153.8521	57.5681	30.892	-5.2225	-1.9188	0.409
-153.8173	57.5173	27.8032	-25.9723	-1.8112	0.3318
-153.8173	57.5173	7.7064	3.3389	-1.9231	0.3356
-154.2586	57.683	-0.0003	-0.0001	-2.0349	0.3394
-154.3322	57.7106	-0.0003	-0.0001	-1.9575	0.3858
-154.1115	57.6278	-13.1332	-6.0209	-1.8456	0.382
-153.5579	57.4577	16.4888	-16.959	-1.467	0.4671
-153.1514	57.3428	38.3578	-25.0343	-1.1357	0.3822
-153.1514	57.3428	20.9279	-23.4336	-1.2776	0.5096
-153.4108	57.4025	-6.1441	2.2686	-1.5014	0.5172
-153.705	57.5129	3.8354	-12.2867	-1.5487	0.3473
-153.7785	57.5405	13.3845	-4.9425	-1.7294	0.4515
-153.6314	57.4853	-0.9479	-5.3102	-1.5788	0.4709
-153.705	57.5129	25.8948	-15.222	-1.6176	0.4477
-153.705	57.5129	12.4041	-24.7841	-1.652	0.4979
-153.7785	57.5405	14.4184	-21.0299	-1.7682	0.4283
-153.8908	57.545	-0.9479	-5.3102	-1.8112	0.3318
-154.0379	57.6002	6.4797	-22.5965	-1.9618	0.3124
-154.185	57.6554	13.3845	-4.9425	-2.0349	0.3394
-154.185	57.6554	-11.9757	17.4662	-2.1081	0.3664
-154.3322	57.7106	-5.4662	15.0625	-2.1124	0.2931
-154.4057	57.7383	38.3578	-25.0343	-2.1899	0.2467
-153.8908	57.545	30.892	-5.2225	-1.9188	0.409
-153.2249	57.3704	8.7231	9.823	-1.5788	0.4709
-153.0778	57.3152	-28.7908	16.8158	-1.3594	0.3899
-153.2249	57.3704	6.5092	-2.4038	-1.467	0.4671
-153.1901	57.3196	-11.8221	10.55	-1.4713	0.3937
-153.3372	57.3749	35.1172	-28.6731	-1.695	0.4013
-153.4843	57.4301	15.0205	0.6381	-1.7294	0.4515
-153.4843	57.4301	-53.9364	59.3863	-1.6176	0.4477
-153.3372	57.3749	18.5807	-12.5213	-1.4713	0.3937
-153.3372	57.3749	-0.0003	-0.0001	-1.6477	0.5713
-153.6314	57.4853	23.364	-19.4977	-1.8026	0.4785
-153.7785	57.5405	-5.6455	22.8128	-1.8069	0.4052
-153.7785	57.5405	14.4184	-21.0299	-1.9532	0.4592
-153.9257	57.5958	30.892	-5.2225	-1.9919	0.436
-154.0379	57.6002	7.7064	3.3389	-2.065	0.463
-154.1115	57.6278	27.8032	-25.9723	-2.1038	0.4398
-154.0379	57.6002	5.1959	-7.5788	-2.1726	0.5402
-153.6314	57.4853	15.0205	0.6381	-1.8714	0.5789
-153.0778	57.3152	16.4029	6.9872	-1.4583	0.6138
-152.7449	57.2279	-25.174	30.0239	-1.3077	0.6332
-152.8571	57.2324	5.1959	-7.5788	-1.2346	0.6062
-153.0043	57.2876	36.5701	-13.504	-1.4971	0.5906
-153.2249	57.3704	9.9792	-14.5553	-1.5401	0.4941
-153.1514	57.3428	12.4041	-24.7841	-1.7509	0.7218
-153.0778	57.3152	-2.089	-10.099	-1.4971	0.5906
-153.0778	57.3152	9.9792	-14.5553	-1.4583	0.6138
-153.2985	57.398	20.9279	-23.4336	-1.6778	0.6948
-153.2249	57.3704	-6.8723	-3.1226	-1.7208	0.5983
-153.4456	57.4533	11.7055	-9.9825	-1.9445	0.6059
-153.5927	57.5085	-40.2812	27.9182	-1.9144	0.4824
-153.6663	57.5361	-50.1263	47.9339	-2.0564	0.6097
-153.6663	57.5361	10.3338	-28.2178	-2.0521	0.6831
-153.8134	57.5913	-6.1441	2.2686	-1.9876	0.5094
-98.1886	-23.6175	-6.1441	2.2686	-2.2457	0.5672
-97.7473	-23.7831	-29.6758	24.0021	-1.837	0.5287
-97.0853	-24.0317	6.5092	-2.4038	-1.6433	0.6446
-96.9382	-24.0869	-12.5041	-1.043	-1.4196	0.637
-97.4297	-23.4496	59.7656	-37.7747	-1.3852	0.5868
-97.5033	-23.422	-19.0302	27.7552	-1.5315	0.6408
-97.724	-23.3392	-5.6783	8.2813	-1.7896	0.6986
-97.7975	-23.3116	-13.1332	-6.0209	-1.9402	0.6793
-97.6156	-23.4176	6.5092	-2.4038	-1.7552	0.6485
-97.4646	-23.3988	9.9792	-14.5553	-1.4971	0.5906
-97.5033	-23.422	16.4888	-16.959	-1.824	0.7488
-97.542	-23.4452	8.2746	-18.7612	-1.6821	0.6215
-97.6852	-23.316	18.5807	-12.5213	-1.7896	0.6986
-97.6117	-23.3436	31.9326	-31.9952	-1.8284	0.6755
-97.6504	-23.3668	0.334	39.3466	-1.8628	0.7257
-97.7627	-23.3624	35.9661	-45.3668	-1.8671	0.6523
-97.6891	-23.39	2.3502	-16.5736	-1.9402	0.6793
-97.7588	-23.2884	16.2582	-30.4054	-1.8327	0.6021
-97.3832	-23.2784	13.3845	-4.9425	-1.4927	0.664
-97.0425	-23.2177	-12.0685	4.4562	-1.226	0.7529
-97.0038	-23.1945	-6.8723	-3.1226	-1.2561	0.8765
-97.1548	-23.2133	-36.2363	52.8505	-1.3722	0.8069
-97.271	-23.2829	35.1172	-28.6731	-1.596	0.8146
-97.3832	-23.2784	-6.8723	-3.1226	-1.8585	0.799
-97.3097	-23.3061	23.364	-19.4977	-1.7853	0.772
-97.271	-23.2829	-3.2816	-14.494	-1.7122	0.745
-97.3445	-23.2553	-0.0003	-0.0001	-1.7509	0.7218
-97.4181	-23.2276	39.2467	-34.6959	-1.824	0.7488
-97.4955	-23.274	13.3845	-4.9425	-1.9746	0.7295
-97.6078	-23.2696	-17.9165	0.9556	-1.9445	0.6059
-97.6852	-23.316	27.8032	-25.9723	-2.3102	0.741
-97.6852	-23.316	-5.4662	15.0625	-2.0908	0.6599
-97.724	-23.3392	-64.5418	63.3025	-2.0951	0.5866
-97.7279	-23.4132	11.7055	-9.9825	-2.207	0.5904
-97.5769	-23.3944	0.8312	5.8776	-2.3102	0.741
-97.1548	-23.2133	13.3845	-4.9425	-1.6347	0.7914
-96.8876	-23.125	2.3502	-16.5736	-1.4454	0.8339
-96.9264	-23.1481	16.4029	6.9872	-1.5573	0.8377
-96.9999	-23.1205	33.5745	-18.0579	-1.454	0.6872
-96.9651	-23.1713	-17.9165	0.9556	-1.596	0.8146
-97.1161	-23.1901	-6.1441	2.2686	-1.6003	0.7412
-97.1896	-23.1625	30.6781	-22.1985	-1.7466	0.7952
-97.0038	-23.1945	13.3845	-4.9425	-1.7035	0.8918
-97.1122	-23.1161	-23.3784	14.8172	-1.596	0.8146
-97.12	-23.2641	20.9279	-23.4336	-1.7122	0.745
-97.2671	-23.2089	9.9792	-14.5553	-1.9703	0.8029
-97.3058	-23.2321	-12.0685	4.4562	-2.0435	0.8299
-97.3445	-23.2553	25.8948	-15.222	-1.9359	0.7527
-97.4916	-23.2	14.4184	-21.0299	-2.0521	0.6831
-97.5691	-23.2464	28.3783	-10.4791	-2.3447	0.7911
-97.4607	-23.3248	0.8312	5.8776	-2.1984	0.7371
-97.4181	-23.2276	16.4888	-16.959	-2.0865	0.7333
-97.0038	-23.1945	-5.4662	15.0625	-1.7466	0.7952
-96.7754	-23.1294	31.9326	-31.9952	-1.5228	0.7876
-96.7715	-23.0554	-6.1441	2.2686	-1.4067	0.8571
-96.8489	-23.1018	23.364	-19.4977	-1.5573	0.8377
-97.0347	-23.0697	13.3845	-4.9425	-1.6691	0.8416
-97.0386	-23.1437	0.8312	5.8776	-1.6734	0.7682
-97.0735	-23.0929	20.9279	-23.4336	-1.7079	0.8184
-97.0077	-23.2685	83.4968	-51.0356	-1.8541	0.8724
-97.0464	-23.2917	-2.089	-10.099	-2.0134	0.7063
-97.1509	-23.1393	9.9792	-14.5553	-2.0564	0.6097
-97.2284	-23.1857	-11.8221	10.55	-2.3533	0.6444
-97.3058	-23.2321	8.7231	9.823	-2.3189	0.5942
-97.3445	-23.2553	11.7055	-9.9825	-2.2845	0.544
-97.3019	-23.1581	-28.7908	16.8158	-2.1683	0.6136
-97.449	-23.1028	23.364	-19.4977	-2.1984	0.7371
-97.5265	-23.1492	-5.4662	15.0625	-2.164	0.6869
-97.5652	-23.1724	-28.7908	16.8158	-2.2715	0.7641
-97.3406	-23.1813	-13.1332	-6.0209	-2.0435	0.8299
-97.0347	-23.0697	8.2746	-18.7612	-1.7035	0.8918
-96.8102	-23.0786	27.8032	-25.9723	-1.5529	0.9111
-96.7754	-23.1294	-24.0439	21.9225	-1.5529	0.9111
-96.9612	-23.0973	5.1959	-7.5788	-1.738	0.942
-97.0038	-23.1945	-28.3057	10.4519	-1.6304	0.8648
-97.0038	-23.1945	38.3578	-25.0343	-1.6261	0.9381
-96.9225	-23.0742	-12.5041	-1.043	-1.2474	1.0232
-96.9186	-23.0002	-5.4662	15.0625	-1.1269	1.1661
-97.0347	-23.0697	-12.0685	4.4562	-1.1613	1.2163
-97.1161	-23.1901	-36.7303	34.2911	-1.5658	1.3282
-97.2671	-23.2089	-42.3801	55.1191	-1.3894	1.1506
-97.3794	-23.2045	16.4888	-16.959	-1.4281	1.1274
-97.4607	-23.3248	-12.0685	4.4562	-1.4324	1.054
-97.6078	-23.2696	11.7055	-9.9825	-1.6863	1.1853
-97.6852	-23.316	-0.9479	-5.3102	-1.8326	1.2393
-97.7705	-23.5104	-5.6783	8.2813	-1.91	1.1929
-97.8866	-23.5799	-33.1577	41.6681	-2.0993	1.1504
-97.5885	-23.6164	-31.0984	32.2115	-1.7637	1.1389
-97.3175	-23.4541	-25.174	30.0239	-1.5787	1.1081
-97.2478	-23.5557	-13.1332	-6.0209	-1.8068	1.0423
-97.3988	-23.5744	-0.0003	-0.0001	-2.0348	0.9766
-97.5111	-23.57	-35.0882	26.0006	-2.1467	0.9804
-97.5576	-23.7412	-13.1332	-6.0209	-2.3748	0.9147
-97.5924	-23.6904	-28.7908	16.8158	-2.7104	0.9262
-97.5576	-23.7412	-0.9479	-5.3102	-2.5641	0.8722
-97.4066	-23.7224	4.702	-26.1382	-2.4953	0.7718
-97.4453	-23.7456	16.2582	-30.4054	-2.8653	0.8335
-97.4492	-23.8196	6.5092	-2.4038	-3.0589	0.7175
-97.4105	-23.7964	-5.9034	-22.2221	-3.102	0.621
-97.4066	-23.7224	11.7055	-9.9825	-3.2956	0.5051
-97.3717	-23.7732	-12.5041	-1.043	-3.6269	0.5899
-97.4801	-23.6948	17.5401	14.2514	-3.5968	0.4664
-97.4801	-23.6948	3.8354	-12.2867	-3.7431	0.5204
-97.3717	-23.7732	-28.3057	10.4519	-3.6786	0.3466
-97.182	-23.7313	20.6985	-7.6433	-3.8162	0.5474
-96.8761	-23.6197	-24.0439	21.9225	-3.0762	0.424
-96.6129	-23.6054	-12.0685	4.4562	-2.8094	0.513
-96.7174	-23.453	12.4041	-24.7841	-2.9213	0.5168
-96.7251	-23.601	-17.7465	12.7376	-2.9213	0.5168
-96.7987	-23.5734	-6.8723	-3.1226	-3.0375	0.4472
-96.8374	-23.5965	-23.3784	14.8172	-3.1063	0.5476
-96.8722	-23.5457	-2.089	-10.099	-3.1063	0.5476
-96.8374	-23.5965	3.8354	-12.2867	-3.1794	0.5746
-96.9458	-23.5181	-0.0003	-0.0001	-3.2482	0.675
-96.9845	-23.5413	-0.0003	-0.0001	-3.2138	0.6248
-97.0968	-23.5369	13.3845	-4.9425	-3.2956	0.5051
-97.1781	-23.6573	-3.2816	-14.494	-3.5538	0.5629
-97.2169	-23.6805	-23.1095	2.8732	-3.7775	0.5706
-97.2169	-23.6805	-6.8723	-3.1226	-3.5581	0.4895
-97.2943	-23.7268	-42.1427	36.2897	-3.7087	0.4702
-97.5537	-23.6672	-6.8723	-3.1226	-3.6699	0.4934
-97.4762	-23.6208	-13.1332	-6.0209	-3.4763	0.6093
-97.062	-23.5877	16.2582	-30.4054	-2.947	0.7137
-96.8684	-23.4717	-28.3057	10.4519	-2.5641	0.8722
-96.7948	-23.4994	-0.7104	-24.1396	-2.4393	1.0885
-96.7948	-23.4994	-23.1128	8.5344	-2.3575	1.2082
-97.0155	-23.4165	2.3502	-16.5736	-2.3532	1.2816
-97.0194	-23.4905	-6.8723	-3.1226	-2.28	1.2546
-97.089	-23.3889	3.8354	-12.2867	-2.2413	1.2778
-96.9806	-23.4673	-7.7208	-8.0194	-2.0907	1.2971
-97.1626	-23.3613	-5.6783	8.2813	-2.1208	1.4207
-97.1704	-23.5093	3.8354	-12.2867	-2.1638	1.3241
-97.2826	-23.5049	-12.5041	-1.043	-2.3489	1.355
-97.4685	-23.4728	14.4184	-21.0299	-2.3101	1.3781
-97.5072	-23.496	6.5092	-2.4038	-2.6027	1.4862
-97.6582	-23.5148	-3.2816	-14.494	-2.5295	1.4592
-97.6195	-23.4916	18.5807	-12.5213	-2.4607	1.3588
-97.5885	-23.6164	22.402	-32.6741	-2.5295	1.4592
-97.7356	-23.5612	-44.7139	45.9353	-2.3833	1.4051
-97.8828	-23.5059	-5.6455	22.8128	-2.2671	1.4747
-97.6234	-23.5656	16.4888	-16.959	-2.0347	1.6138
-97.3136	-23.3801	-36.2363	52.8505	-1.6905	1.7491
-97.1626	-23.3613	-12.5041	-1.043	-1.5399	1.7684
-97.0542	-23.4397	26.0153	-37.9441	-1.613	1.7954
-97.1277	-23.4121	-12.0685	4.4562	-1.5786	1.7452
-97.2091	-23.5325	3.8354	-12.2867	-2.0218	1.8339
-97.5033	-23.422	16.4888	-16.959	-2.1079	1.6408
-97.4685	-23.4728	-6.8723	-3.1226	-2.2197	1.6446
-97.2826	-23.5049	11.7055	-9.9825	-2.1035	1.7142
-97.4297	-23.4496	-5.6455	22.8128	-2.0648	1.7373
-97.4724	-23.5468	-33.1577	41.6681	-1.9529	1.7335
-97.5807	-23.4684	13.3845	-4.9425	-2.0218	1.8339
-97.6621	-23.5888	23.3127	-40.6945	-2.2111	1.7914
-97.8479	-23.5567	-3.2816	-14.494	-2.4004	1.7488
-97.9254	-23.6031	-9.7576	-16.6007	-2.409	1.6021
-98.0028	-23.6495	-19.0302	27.7552	-2.7059	1.6367
-98.0803	-23.6959	16.4888	-16.959	-2.6715	1.5865
-98.1577	-23.7423	9.9792	-14.5553	-2.8953	1.5942
-98.27	-23.7378	0.8312	5.8776	-2.9684	1.6212
-98.3784	-23.6594	-38.9573	20.5699	-3.0372	1.7216
-98.0028	-23.6495	-13.887	-10.5779	-2.5941	1.6329
-97.515	-23.644	9.9792	-14.5553	-2.4305	1.8724
-97.3252	-23.602	-23.3784	14.8172	-2.0304	1.6872
-97.4724	-23.5468	27.8032	-25.9723	-2.2885	1.745
-97.5924	-23.6904	12.4041	-24.7841	-2.4391	1.7256
-97.7434	-23.7092	8.3153	-31.4082	-2.7704	1.8105
-97.7047	-23.686	-17.7003	6.5358	-2.7704	1.8105
-97.7395	-23.6352	-12.0685	4.4562	-2.5941	1.6329
-97.7434	-23.7092	-24.0439	21.9225	-2.5941	1.6329
-97.8557	-23.7047	-6.1441	2.2686	-2.9598	1.7679
-97.8557	-23.7047	11.7055	-9.9825	-2.9684	1.6212
-98.0067	-23.7235	-24.0439	21.9225	-3.1233	1.5285
-98.0454	-23.7467	-18.8606	-8.7414	-3.2008	1.4821
-98.0454	-23.7467	-17.7003	6.5358	-3.2395	1.4589
-98.0454	-23.7467	-12.0685	4.4562	-3.3815	1.5863
-98.1964	-23.7655	-0.9479	-5.3102	-3.3514	1.4627
-98.239	-23.8626	-23.1095	2.8732	-3.6138	1.4472
-98.2313	-23.7147	-33.9838	18.7333	-3.6783	1.621
-97.7047	-23.686	39.2467	-34.6959	-3.1577	1.5787
-97.5111	-23.57	-5.6783	8.2813	-3.0071	1.598
-97.5498	-23.5932	-6.8723	-3.1226	-2.934	1.571
-97.5537	-23.6672	23.364	-19.4977	-3.0846	1.5517
-97.7047	-23.686	-0.9479	-5.3102	-3.0932	1.4049
-97.8557	-23.7047	39.2467	-34.6959	-3.3858	1.5129
-97.7473	-23.7831	18.5807	-12.5213	-3.2438	1.3856
-97.7047	-23.686	-0.9479	-5.3102	-3.2352	1.5323
-97.7783	-23.6583	-12.5041	-1.043	-3.1964	1.5555
-97.9293	-23.6771	39.4001	-42.8865	-3.3126	1.4859
-97.9719	-23.7743	2.3502	-16.5736	-3.3557	1.3894
-98.1229	-23.7931	-5.4662	15.0625	-3.6439	1.5708
-98.3087	-23.761	1.409	12.5238	-3.6095	1.5206
-98.3552	-23.9322	-11.8221	10.55	-3.687	1.4742
-98.39	-23.8814	-23.1128	8.5344	-3.6526	1.424
-98.5333	-23.7522	-2.089	-10.099	-3.6569	1.3507
-98.541	-23.9002	27.8032	-25.9723	-3.9494	1.4587
-98.4288	-23.9046	5.1959	-7.5788	-3.7988	1.478
-97.8596	-23.7787	-27.0139	39.3994	-3.2352	1.5323
-97.484	-23.7688	-5.6783	8.2813	-2.9727	1.5478
-97.5576	-23.7412	20.6985	-7.6433	-3.1147	1.6752
-97.6699	-23.7368	20.9279	-23.4336	-3.1921	1.6289
-97.7434	-23.7092	-0.0003	-0.0001	-3.119	1.6018
-97.786	-23.8063	-12.5041	-1.043	-3.162	1.5053
-97.8635	-23.8527	-6.8723	-3.1226	-3.347	1.5361
-97.8248	-23.8295	-42.1427	36.2897	-3.347	1.5361
-97.7473	-23.7831	2.3502	-16.5736	-3.2782	1.4357
-97.7434	-23.7092	-17.9165	0.9556	-3.502	1.4434
-97.786	-23.8063	-7.7208	-8.0194	-4.0786	1.169
-97.8983	-23.8019	-23.1128	8.5344	-4.7283	0.9217
-98.0841	-23.7699	-29.6758	24.0021	-5.3136	0.5006
-98.088	-23.8439	-12.5041	-1.043	-5.8729	0.5197
-98.0493	-23.8207	18.5479	-27.0527	-6.1354	0.5041
-98.0454	-23.7467	-33.1577	41.6681	-6.3548	0.5852
-98.1577	-23.7423	41.7663	-21.0827	-6.4753	0.4422
-98.1268	-23.8671	-23.1128	8.5344	-6.8841	0.4807
-97.7821	-23.7323	-33.1577	41.6681	-6.5528	0.3959
-97.3291	-23.676	9.3484	17.2762	-6.1741	0.481
-97.2517	-23.6297	14.4184	-21.0299	-6.2817	0.5582
-97.2595	-23.7776	27.8032	-25.9723	-6.5097	0.4924
-97.484	-23.7688	23.364	-19.4977	-6.9141	0.6043
-97.5228	-23.792	-0.9479	-5.3102	-6.9228	0.4575
-97.6699	-23.7368	-5.4662	15.0625	-6.9959	0.4846
-97.6699	-23.7368	20.9279	-23.4336	-6.8453	0.5039
-97.5963	-23.7644	-0.0003	-0.0001	-6.7636	0.6236
-97.7473	-23.7831	46.7141	-45.5873	-6.8711	0.7008
-97.9061	-23.9499	-19.0302	27.7552	-7.0992	0.6351
-98.061	-24.0427	-6.1441	2.2686	-7.2541	0.5424
-98.1345	-24.0151	-28.7908	16.8158	-7.3616	0.6196
-98.1694	-23.9643	6.4797	-22.5965	-7.3573	0.693
-98.3165	-23.909	43.1009	-40.3173	-7.3917	0.7432
-98.2817	-23.9598	-28.7908	16.8158	-7.2067	0.7123
-98.3204	-23.983	-2.089	-10.099	-7.2411	0.7625
-98.3591	-24.0062	8.2746	-18.7612	-7.3487	0.8397
-98.0571	-23.9687	14.4184	-21.0299	-7.0862	0.8552
-97.6041	-23.9124	-6.1441	2.2686	-6.7162	0.7936
-97.4531	-23.8936	-6.8723	-3.1226	-6.7506	0.8438
-97.635	-23.7876	18.5479	-27.0527	-6.8324	0.724
-97.7512	-23.8571	-33.9838	18.7333	-7.0561	0.7317
-97.7899	-23.8803	35.7868	-37.6165	-7.168	0.7355
-97.7899	-23.8803	20.6985	-7.6433	-7.0174	0.7549
-97.7551	-23.9311	35.9661	-45.3668	-7.0174	0.7549
-97.8286	-23.9035	18.5807	-12.5213	-6.983	0.7047
-97.7899	-23.8803	9.9792	-14.5553	-6.9486	0.6545
-97.9022	-23.8759	-12.5041	-1.043	-7.168	0.7355
-98.0145	-23.8715	-12.5041	-1.043	-7.3573	0.693
-97.9835	-23.9963	-28.7908	16.8158	-7.581	0.7006
-98.0184	-23.9455	14.4184	-21.0299	-7.5423	0.7238
-98.239	-23.8626	6.5092	-2.4038	-7.6542	0.7276
-98.2468	-24.0106	-33.9838	18.7333	-7.6972	0.6311
-98.2855	-24.0338	16.4888	-16.959	-7.736	0.6079
-98.0997	-24.0659	-8.694	-12.4954	-8.3513	0.3103
-97.6467	-24.0096	27.8032	-25.9723	-10.1542	0.1514
-97.4996	-24.0648	-36.2363	52.8505	-12.4258	0.9153
-97.608	-23.9864	5.1959	-7.5788	-14.3273	2.8918
-97.4996	-24.0648	22.402	-32.6741	-15.3251	4.9845
-97.5693	-23.9632	-11.9757	17.4662	-16.0305	6.332
-97.7047	-23.686	19.8715	-35.6754	-15.3335	6.1121
-97.4994	-23.348	26.0153	-37.9441	-12.9802	4.8308
-96.9649	-22.4546	-13.1332	-6.0209	-8.0581	3.3882
-96.1632	-21.4728	-24.7737	-15.2541	-1.5785	2.3824
-95.6752	-20.7505	-37.6171	-14.4473	4.2519	3.678
-95.346	-20.195	-54.4231	-35.9044	11.3487	12.5274
-95.5124	-19.793	-81.7798	-37.2727	27.073	25.1255
-96.1047	-19.6461	-79.8738	-60.7665	41.5258	24.9989
-96.7204	-19.9431	-83.7964	-53.1332	48.8056	23.6227
-96.7513	-19.8183	-62.8974	-71.3458	50.5865	20.866
-96.3254	-19.5632	-96.4036	-54.6627	52.4794	19.3799
-96.066	-19.6229	-77.7896	-74.8802	52.1994	17.7965
-95.5316	-19.4462	-76.2229	-71.7479	52.0314	16.8465
-94.8385	-19.1028	-89.4616	-68.1338	51.162	15.4058
-94.2538	-18.6809	-93.0404	-62.914	51.192	14.645
-94.2073	-18.5097	-94.5032	-62.3739	50.9467	14.2858
-94.2073	-18.5097	-95.5181	-59.3003	50.8132	13.9228
-94.1376	-18.6113	-79.8857	-78.7542	50.2366	13.6484
-94.1686	-18.4865	-100.4067	-40.1403	49.1522	12.9993
-94.1686	-18.4865	-86.4433	-56.8413	48.4508	12.5086
-94.2034	-18.4357	-80.4999	-72.6799	47.8785	12.3077
-94.548	-18.5705	-75.0528	-73.4544	47.6503	11.6048
-94.9352	-18.8024	-78.4173	-72.212	46.7381	11.3419
-95.2876	-19.0851	-66.276	-76.6953	45.5892	10.8665
-95.7832	-19.2386	-78.8398	-76.8539	44.5564	10.4607
-96.3602	-19.5124	-69.9271	-89.8532	43.614	9.6842
-96.8288	-19.8647	-79.1095	-69.37	43.287	9.8424
-97.0959	-19.9531	-99.316	-52.0879	42.7922	9.6878
-97.4018	-20.0646	-76.2229	-71.7479	44.393	10.8584
-97.5954	-20.1806	-79.3822	-77.8156	45.9895	11.9556
-97.7968	-20.4445	-96.0392	-61.8067	47.6979	13.049
-98.2925	-20.598	-83.0057	-58.1107	49.1654	14.4938
-98.9469	-20.9182	-94.635	-53.8164	51.6614	16.9081
-99.4812	-21.0949	-68.0471	-68.0573	57.2903	22.4013
-100.0194	-21.3456	-82.4912	-44.919	65.7553	31.0079
-100.4066	-21.5775	-48.9815	-65.9889	71.023	37.3466
-100.79	-21.7354	-53.966	-53.5405	72.7021	43.0238
-101.0262	-21.9486	-75.0931	-35.3937	60.5125	42.8769
-101.0418	-22.2446	-57.5643	-37.2184	40.2575	30.7524
-101.0147	-22.4434	-67.1787	-25.9841	25.8065	16.9344
-101.3323	-22.7769	-42.8668	-40.1716	16.5026	8.6751
-101.4757	-23.3644	-41.4332	-35.4908	11.8206	5.3062
-101.4138	-23.614	-49.0892	-20.819	8.8991	5.1856
-101.4759	-24.0812	-22.2004	-36.9327	7.277	5.5596
-101.5418	-24.6223	-34.6713	-22.8069	5.5947	5.5436
-101.1779	-24.8344	-29.6448	-17.3912	3.5766	4.9019
-100.8798	-24.8709	-16.6988	-22.1716	2.2083	4.5076
-100.8489	-24.9957	19.8715	-35.6754	1.2272	4.3451
-100.8566	-25.1437	-3.8225	-30.6746	0.5388	4.0745
-100.8605	-25.2177	-3.2816	-14.494	-0.2186	3.9044
-100.787	-25.2453	-19.5584	-12.9817	-0.7393	3.3095
-100.8257	-25.2685	-20.3121	-16.9016	-1.3934	2.9888
-100.8296	-25.3425	20.9445	-49.8281	-1.9183	2.9577
-100.9031	-25.3148	0.8478	-20.5169	-2.0087	2.6912
-100.8335	-25.4164	2.9029	-29.4096	-2.2454	2.4787
-100.9457	-25.412	14.9912	-41.1452	-2.2153	2.3552
-101.0929	-25.3568	22.402	-32.6741	-2.3745	2.1891
-100.9109	-25.4628	-15.7043	-18.603	-2.5725	1.9998
-100.4927	-25.3557	-18.3262	-4.1033	-2.2799	1.8917
-100.001	-25.2762	-23.6879	-6.9589	-2.2713	2.0385
-99.7029	-25.3127	-0.5877	-35.3925	-1.9443	1.8803
-99.6603	-25.2155	-14.7311	-14.7642	-1.9874	1.7837
-99.7338	-25.1879	-4.5646	-18.5183	-2.2842	1.8184
-99.7416	-25.3359	6.3441	-34.4287	-2.4779	1.7025
-99.8152	-25.3083	-3.2816	-14.494	-2.8953	1.5942
-99.7029	-25.3127	-4.5646	-18.5183	-3.6439	1.5708
-99.7377	-25.2619	3.8354	-12.2867	-4.2807	1.5435
-99.85	-25.2575	22.402	-32.6741	-5.0595	1.6437
-99.7416	-25.3359	-17.7465	12.7376	-5.5414	1.7092
-99.7765	-25.2851	20.9279	-23.4336	-5.9071	1.8442
-99.85	-25.2575	-38.1066	14.071	-6.1696	1.8287
-99.8887	-25.2806	-23.1095	2.8732	-6.4621	1.9367
-99.85	-25.2575	-23.1095	2.8732	-6.759	1.9714
-99.6216	-25.1923	-25.174	30.0239	-6.7547	2.0447
-99.0563	-25.1404	-12.0685	4.4562	-6.6428	2.0409
-98.6729	-24.9825	-33.9838	18.7333	-6.4148	2.1066
-98.5142	-24.8157	-13.1332	-6.0209	-6.4104	2.18
-98.3322	-24.9218	14.4184	-21.0299	-6.518	2.2572
-98.5181	-24.8897	-4.5646	-18.5183	-6.6342	2.1877
-98.6264	-24.8113	-18.3262	-4.1033	-6.9267	2.2957
-98.4406	-24.8434	1.409	12.5238	-6.9267	2.2957
-98.3632	-24.797	-36.7303	34.2911	-6.9224	2.3691
-98.3593	-24.723	-29.6758	24.0021	-6.9999	2.3227
-98.2509	-24.8014	2.3502	-16.5736	-7.073	2.3497
-98.3205	-24.6998	-0.9479	-5.3102	-7.1118	2.3265
-98.3593	-24.723	6.5092	-2.4038	-7.1118	2.3265
-98.5412	-24.6169	-11.8221	10.55	-7.2968	2.3574
-98.5064	-24.6678	-23.1128	8.5344	-7.3699	2.3844
-98.5412	-24.6169	28.9116	-35.0778	-7.3699	2.3844
-98.3554	-24.649	26.0153	-37.9441	-7.5162	2.4384
-98.0456	-24.4635	18.5479	-27.0527	-7.2881	2.5041
-97.5539	-24.384	-25.174	30.0239	-6.9095	2.5892
-97.2519	-24.3464	39.2467	-34.6959	-6.7245	2.5584
-97.2906	-24.3696	25.8948	-15.222	-6.7632	2.5352
-97.399	-24.2912	27.8032	-25.9723	-6.9826	2.6162
-97.3603	-24.268	25.8948	-15.222	-7.1289	2.6702
-97.1783	-24.374	-5.6783	8.2813	-7.0902	2.6934
-97.1744	-24.3	23.364	-19.4977	-7.0859	2.7668
-97.2054	-24.1752	-36.7303	34.2911	-7.0902	2.6934
-97.0931	-24.1797	22.402	-32.6741	-7.0815	2.8401
-97.1318	-24.2029	5.1959	-7.5788	-7.3397	2.898
-97.2441	-24.1984	-0.0003	-0.0001	-7.4171	2.8516
-97.3525	-24.12	24.5946	3.9623	-7.529	2.8554
-97.3525	-24.12	5.1959	-7.5788	-7.5634	2.9056
-97.426	-24.0924	-27.0139	39.3994	-7.714	2.8863
-97.3138	-24.0968	-6.8723	-3.1226	-7.7484	2.9365
-96.8181	-23.9433	6.5092	-2.4038	-7.4472	2.9752
-96.2877	-23.8406	11.7055	-9.9825	-7.0686	3.0603
-96.1367	-23.8219	88.0611	-32.5174	-6.9911	3.1066
-96.098	-23.7987	0.8312	5.8776	-7.0255	3.1568
-96.2064	-23.7203	0.8312	5.8776	-7.1718	3.2108
-96.2064	-23.7203	26.0153	-37.9441	-7.2493	3.1645
-96.1715	-23.7711	-0.9479	-5.3102	-7.3525	3.315
-96.1289	-23.6739	42.797	-31.5089	-7.3482	3.3884
-96.125	-23.5999	5.1959	-7.5788	-7.1546	3.5043
-96.125	-23.5999	-12.0685	4.4562	-7.2277	3.5313
-96.276	-23.6187	39.6689	-8.4635	-7.3052	3.485
-96.276	-23.6187	22.402	-32.6741	-7.4127	3.5622
-96.3496	-23.591	23.364	-19.4977	-7.5977	3.593
-96.3535	-23.665	-28.7908	16.8158	-7.6709	3.62
-96.5006	-23.6098	-20.5043	36.9957	-7.8215	3.6007
-96.4619	-23.5866	16.4888	-16.959	-7.886	3.7744
-96.1211	-23.5259	22.7003	-2.1977	-7.6493	3.9869
-95.521	-23.5248	15.0205	0.6381	-6.3025	4.0143
-95.2112	-23.3393	-0.9479	-5.3102	-5.3732	3.9336
-95.0176	-23.2233	20.9279	-23.4336	-4.6418	3.6635
-94.9789	-23.2001	25.0574	-29.4564	-4.4137	3.7292
-95.1608	-23.0941	11.7055	-9.9825	-4.6073	3.6133
-95.0524	-23.1725	23.364	-19.4977	-4.8397	3.4742
-95.0486	-23.0985	18.5807	-12.5213	-4.7709	3.3738
-95.0486	-23.0985	33.5745	-18.0579	-4.9172	3.4278
-95.0834	-23.0477	31.9326	-31.9952	-4.9559	3.4046
-94.9711	-23.0521	25.8948	-15.222	-4.5385	3.5129
-95.0486	-23.0985	32.5248	-40.3478	-1.6125	4.3441
-95.0137	-23.1493	11.7565	-36.4272	4.9193	6.1304
-95.2344	-23.0665	-45.0774	-11.6925	13.3669	13.8063
-95.033	-22.8025	-45.2069	-36.7587	33.0375	29.9699
-93.8285	-21.2929	-53.2342	-51.8991	51.1172	29.2537
-92.713	-19.3348	-65.2441	-34.3826	57.1276	26.622
-92.6122	-18.8444	-61.573	-52.6433	58.8782	23.3518
-91.4235	-18.3475	-69.0782	-60.1798	54.4972	18.7472
-90.4554	-17.7677	-45.9378	-80.307	50.112	14.7065
-89.4525	-17.2387	-59.9856	-77.7436	48.8639	13.1807
-88.558	-16.6314	-82.6268	-56.7512	48.5626	12.5048
-87.6944	-15.8992	-65.0555	-61.6653	47.8697	11.5237
-87.1833	-15.4497	-76.4092	-55.861	47.3103	10.9057
-86.6334	-14.977	-68.2312	-63.5662	46.1441	10.1368
-86.0835	-14.5044	-62.9052	-67.0323	45.4297	9.426
-85.9634	-14.3608	-51.7556	-83.294	45.3307	9.0128
-86.2615	-14.3243	-103.6249	-38.952	45.3307	9.0128
-86.6797	-14.4314	-37.439	-74.9365	45.0552	8.7772
-86.9585	-14.7418	-68.6755	-69.2122	44.853	8.5145
-87.1056	-14.6865	-46.9276	-81.2534	44.229	8.0702
-87.4502	-14.8213	-65.6175	-75.664	43.5405	7.7997
-87.884	-15.2244	-58.1731	-71.7034	43.192	7.591
-88.4531	-15.3502	-68.6755	-69.2122	42.5766	7.2935
-88.9914	-15.6009	-77.2144	-58.7498	42.2151	6.8647
-89.5335	-15.9256	-86.083	-62.7843	41.5481	6.3239
-89.8123	-16.2359	-80.8714	-57.3994	41.0533	6.1692
-89.9672	-16.3287	-75.5995	-74.4895	40.7692	5.7868
-90.277	-16.5142	-63.5379	-68.2605	40.3518	5.6786
-90.5868	-16.6997	-76.7763	-63.3721	40.7822	6.0069
-90.9314	-16.8345	-89.8077	-55.599	40.6961	5.8138
-91.427	-16.988	-94.5032	-62.3739	39.3148	5.1994
-92.0853	-17.3822	-77.2817	-73.8683	38.2691	4.5734
-93.0804	-17.7632	-87.3562	-60.9273	37.7056	5.1564
-94.1956	-18.2877	-59.3641	-90.68	45.1761	10.8316
-95.7638	-18.8686	-74.6432	-68.3954	60.9221	23.7965
-96.9603	-19.5135	-36.8684	-83.656	71.501	39.7564
-97.8239	-20.2457	-45.5544	-54.7349	54.4535	38.3298
-98.5248	-20.7371	-49.9726	-51.0793	31.2929	19.3691
-99.1056	-21.085	-33.2566	-50.8422	20.3753	10.3562
-99.5123	-21.6869	-28.0813	-54.9647	15.5172	8.4392
-99.6092	-22.1033	-42.135	-37.893	13.6629	9.3114
-99.435	-22.3573	-19.6812	-48.7331	12.6735	10.2765
-98.9666	-22.7218	-29.6608	-34.1779	11.4215	10.5889
-98.5214	-22.8134	-12.8465	-37.3505	9.2829	9.8042
-98.1497	-22.8775	26.5475	-45.4124	8.0909	9.2323
-97.9639	-22.9095	-16.6988	-22.1716	6.9119	8.8805
-98.0026	-22.9327	0.8478	-20.5169	5.6512	8.409
-97.9291	-22.9604	-28.0831	4.7097	5.3801	8.2467
-97.782	-23.0156	1.1511	-32.5111	5.1994	8.3509
-97.6697	-23.02	25.0574	-29.4564	4.7863	8.316
-97.6697	-23.02	18.5479	-27.0527	4.5066	8.007
-97.7432	-22.9924	0.8478	-20.5169	3.9472	8.0261
-97.5961	-23.0476	-78.9505	68.623	3.5987	7.8175
-97.6271	-22.9228	-17.7465	12.7376	3.405	7.7016
-97.7394	-22.9184	14.4184	-21.0299	2.893	7.8906
-97.7394	-22.9184	2.9029	-29.4096	2.665	7.8249
-97.7355	-22.8444	16.2582	-30.4054	2.2132	7.7668
-97.4335	-22.8069	-4.5646	-18.5183	2.2863	7.7398
-96.9766	-22.6766	-23.1128	8.5344	2.4068	7.8827
-96.4848	-22.5971	39.4001	-42.8865	2.4886	8.0025
-96.2951	-22.5551	22.402	-32.6741	2.7123	7.9948
-96.2564	-22.5319	9.3484	17.2762	2.4972	8.1492
-96.2603	-22.6059	-0.9479	-5.3102	2.1703	8.3074
-96.2564	-22.5319	-13.1332	-6.0209	2.0971	8.3344
-96.2138	-22.4347	-6.1441	2.2686	2.0283	8.4348
-96.179	-22.4855	-12.5041	-1.043	1.8089	8.5159
-96.1751	-22.4115	1.6686	20.112	1.8132	8.5892
-96.1751	-22.4115	9.9792	-14.5553	1.6712	8.7166
-96.2486	-22.3839	1.6686	20.112	1.3787	8.8246
-96.4345	-22.3519	-6.1441	2.2686	1.2324	8.8787
-96.3996	-22.4027	-2.089	-10.099	1.1248	8.9559
-96.3609	-22.3795	8.7231	9.823	1.0947	9.0794
-96.4693	-22.3011	-0.0003	-0.0001	0.8753	9.1604
-96.508	-22.3243	16.4888	-16.959	0.7333	9.2878
-96.539	-22.1995	-13.1332	-6.0209	0.4838	9.4924
-95.9388	-22.1984	18.5479	-27.0527	0.8969	9.5273
-95.4084	-22.0957	23.364	-19.4977	1.2024	9.6394
-95.1799	-22.0306	-37.1965	2.8647	1.2799	9.6858
-95.0986	-21.9102	-18.1196	19.7348	1.2411	9.6626
-95.1334	-21.8594	8.7231	9.823	0.8754	9.7976
-95.0638	-21.961	-33.9838	18.7333	0.7679	9.8748
-95.0947	-21.8362	-11.8221	10.55	0.8453	9.9212
-94.9437	-21.8174	23.364	-19.4977	0.8583	10.1413
-94.8702	-21.845	-13.6291	34.457	0.7507	10.2185
-94.9785	-21.7666	42.797	-31.5089	0.9745	10.2109
-95.0173	-21.7898	54.3939	-48.4231	0.7766	10.6587
-95.0134	-21.7158	-5.6455	22.8128	0.7121	10.8325
-95.1257	-21.7114	22.402	-32.6741	0.6089	10.9831
-95.2031	-21.7578	-27.0139	39.3994	0.4669	11.1105
-95.234	-21.633	39.2008	-50.0847	0.2475	11.1915
-95.1257	-21.7114	15.0205	0.6381	0.1443	11.3421
-95.2379	-21.707	-6.1441	2.2686	-0.1096	11.4733
-95.3502	-21.7025	45.3469	-16.7449	-0.3677	11.5311
-95.234	-21.633	0.8312	5.8776	-0.3978	11.6547
-94.7772	-21.5027	0.8312	5.8776	-0.1999	11.844
-94.2119	-21.4508	15.0205	0.6381	0.2519	11.902
-93.9834	-21.3856	28.3783	-10.4791	0.2606	12.0488
-93.9408	-21.2884	9.9792	-14.5553	0.1616	12.2727
-93.906	-21.3392	28.9116	-35.0778	0.1573	12.1993
-94.0183	-21.3348	-12.5041	-1.043	0.0067	12.18
-94.0144	-21.2608	35.1172	-28.6731	-0.0965	12.3306
-93.755	-21.3205	20.9279	-23.4336	-0.161	12.5043
-93.7898	-21.2697	28.3783	-10.4791	-0.161	12.5043
-93.8634	-21.2421	23.364	-19.4977	-0.4235	12.4888
-93.9021	-21.2652	35.1172	-28.6731	-0.7591	12.5003
-93.9021	-21.2652	17.5401	14.2514	-0.9398	12.6045
-94.0492	-21.21	30.6781	-22.1985	-1.3098	12.6661
-94.0531	-21.284	59.9783	-27.8077	-1.611	12.6274
-94.0492	-21.21	42.8066	-2.7626	-1.6411	12.751
-94.1228	-21.1824	46.5496	-28.0592	-1.6755	12.8012
-94.1654	-21.2796	33.3715	0.7214	-1.9724	12.8358
-94.3473	-21.1736	13.3845	-4.9425	-2.0799	12.913
-94.084	-21.1592	25.8948	-15.222	-2.0713	13.0598
-93.5923	-21.0797	38.3578	-25.0343	-1.5979	13.4847
-93.2516	-21.019	7.7064	3.3389	0.9752	14.0339
-92.9883	-21.0046	13.3845	-4.9425	5.3168	15.4294
-93.0231	-20.9538	23.3127	-40.6945	15.9157	22.8357
-91.2806	-19.9102	-56.6743	5.2216	46.0542	35.9212
-89.3328	-18.5287	-43.8929	-51.2627	61.9085	29.767
-88.45	-18.1433	-56.3867	-44.5127	59.1662	21.896
-86.7152	-17.2477	-58.9194	-58.9832	49.8623	13.6367
-85.7084	-16.6447	-58.0509	-62.64	46.3508	11.11
-84.8371	-15.7645	-73.1193	-64.7225	45.2706	9.8971
-84.0548	-15.1527	-55.8567	-63.4502	43.1276	8.4019
-83.4623	-14.5829	-81.9351	-39.277	41.3029	6.6018
-82.7614	-14.0914	-52.1096	-66.4456	40.3648	5.8987
-82.5949	-13.7767	-52.8361	-62.9163	39.9388	5.6437
-82.5096	-13.5823	-44.8032	-64.1957	39.9946	5.3232
-82.7768	-13.6707	-57.3708	-61.2418	39.6288	4.821
-83.1175	-13.7314	-41.3023	-72.0106	39.4395	4.7785
-83.6209	-14.0329	-71.2153	-52.6812	39.8526	4.8134
-83.8842	-14.0472	-50.6544	-84.9001	40.7347	5.1998
-83.7449	-14.2504	-50.1787	-71.7316	41.1607	5.4548
-83.9733	-14.3156	-56.1251	-72.4596	41.6426	5.3894
-84.1204	-14.2604	-52.3742	-77.9303	41.4533	5.3468
-84.5425	-14.4415	-50.6097	-75.8831	41.492	5.37
-84.9994	-14.5718	-71.6152	-74.7237	41.7588	5.4589
-85.344	-14.7065	-17.5907	-98.3086	41.6469	5.4627
-85.495	-14.7253	-55.8567	-63.4502	41.5178	5.1731
-85.6112	-14.7948	-73.0278	-58.7214	41.3155	4.9104
-86.2887	-14.8423	-46.0564	-70.2551	40.8293	4.9025
-86.6799	-15.1482	-71.6833	-70.8003	40.4377	4.5973
-87.0206	-15.2089	-80.1394	-54.4836	39.9128	4.5663
-87.5898	-15.3348	-67.4875	-66.8021	39.5341	4.4812
-87.977	-15.5667	-54.5671	-70.1112	39.689	4.5739
-88.7359	-15.7346	-71.4922	-84.0651	40.0548	5.076
-89.5064	-16.1244	-77.2817	-73.8683	41.2383	6.1384
-90.4241	-16.459	-60.4197	-74.9595	41.8193	7.1233
-91.4231	-16.914	-75.745	-70.6124	43.9023	9.5028
-92.6041	-17.2629	-66.2564	-64.2954	50.3744	14.0848
-93.9399	-17.7046	-66.5666	-42.8903	61.1844	23.1749
-94.5556	-18.0017	-53.8268	-45.458	73.7164	36.7644
-95.1674	-18.2247	-62.6841	-35.3279	77.1049	49.2696
-95.7831	-18.5218	-53.5014	-31.0346	64.7862	48.833
-96.3561	-18.7217	-42.9073	-26.2503	48.9897	41.3594
-96.6194	-18.736	-48.6577	-14.1188	35.8133	33.3305
-96.3522	-18.6477	-21.0382	-34.3257	27.0476	27.2339
-96.147	-18.3097	5.3656	-44.0755	22.2367	24.2125
-96.5612	-18.3429	-29.089	-13.6606	19.7494	22.5821
-97.3667	-18.6819	-23.2998	-2.2668	17.5463	21.9712
-98.2339	-18.7713	26.0153	-37.9441	15.1153	21.9318
-98.2727	-18.7945	6.4797	-22.5965	13.1016	22.0006
-98.3733	-18.5681	-13.1332	-6.0209	10.903	22.1003
-98.4817	-18.4897	26.0153	-37.9441	8.5795	21.9837
-98.3655	-18.4201	35.1172	-28.6731	6.5615	21.9792
-98.1719	-18.3041	20.6985	-7.6433	5.2578	22.0483
-97.6802	-18.2246	0.8312	5.8776	4.6942	21.994
-97.0723	-18.0756	-19.0302	27.7552	3.9541	22.1174
-96.5844	-18.0701	-13.1332	-6.0209	3.5368	22.0091
-96.4334	-18.0513	63.8951	-43.7976	3.0248	22.1982
-96.5418	-17.9729	25.8948	-15.222	2.6935	22.283
-96.5418	-17.9729	7.7064	3.3389	2.1858	22.5454
-96.3908	-17.9541	45.3469	-16.7449	2.3278	22.418
-96.3482	-17.8569	1.409	12.5238	1.7814	22.6573
-96.383	-17.8061	41.7663	-21.0827	1.5964	22.6881
-96.4566	-17.7785	-18.1196	19.7348	1.4501	22.7421
-96.383	-17.8061	23.364	-19.4977	1.1919	22.8
-96.4953	-17.8017	50.9888	-34.5338	0.8693	23.0316
-96.716	-17.7189	33.5745	-18.0579	0.5036	23.1666
-96.716	-17.7189	39.6689	-8.4635	0.5036	23.1666
-96.7895	-17.6912	35.1172	-28.6731	0.211	23.2746
-96.9366	-17.636	30.892	-5.2225	-0.0428	23.4059
-97.1573	-17.5532	35.7868	-37.6165	-0.2967	23.5371
-96.8979	-17.6128	-12.0685	4.4562	-0.1848	23.5332
-96.4062	-17.5333	46.5496	-28.0592	0.0906	23.7689
-96.0306	-17.5234	28.3783	-10.4791	0.2886	23.9582
-95.9145	-17.4538	43.1009	-40.3173	0.3704	24.0779
-95.8757	-17.4306	9.3484	17.2762	0.2714	24.3019
-96.0577	-17.3246	-33.1577	41.6681	0.009	24.2863
-96.1351	-17.371	42.797	-31.5089	-0.2449	24.4175
-96.0616	-17.3986	20.6985	-7.6433	-0.3868	24.5449
-96.0886	-17.1998	-0.0003	-0.0001	-0.5331	24.5989
-96.1273	-17.223	36.5701	-13.504	-0.9419	24.6374
-96.2396	-17.2186	7.7064	3.3389	-1.2344	24.7455
-96.2784	-17.2418	0.8312	5.8776	-1.4926	24.8033
-96.3867	-17.1634	33.3715	0.7214	-1.7894	24.838
-96.499	-17.1589	-15.5375	45.2073	-2.0476	24.8958
-96.6461	-17.1037	15.0205	0.6381	-2.3488	24.8571
-96.6113	-17.1545	1.409	12.5238	-2.4908	24.9845
-96.7584	-17.0993	50.9888	-34.5338	-2.7102	25.0655
-96.7932	-17.0485	39.6689	-8.4635	-2.8608	25.0461
-96.4525	-16.9877	42.8066	-2.7626	-2.9253	25.2199
-95.8833	-16.8619	8.7231	9.823	-2.6499	25.4555
-95.6162	-16.7735	0.8312	5.8776	-2.3056	25.5908
-95.4303	-16.8056	42.8066	-2.7626	-2.4433	25.7916
-95.4652	-16.7548	46.5496	-28.0592	-2.5551	25.7954
-95.5736	-16.6763	16.4029	6.9872	-2.6197	25.9692
-95.5736	-16.6763	22.7003	-2.1977	-2.6928	25.9962
-95.6084	-16.6255	28.3783	-10.4791	-2.9466	26.1274
-95.5658	-16.5283	8.7231	9.823	-2.8692	26.1737
-95.6432	-16.5747	7.7064	3.3389	-3.2306	26.3822
-95.7516	-16.4963	63.8951	-43.7976	-3.1961	26.332
-95.9762	-16.4875	30.892	-5.2225	-3.6006	26.4438
-95.8717	-16.6399	16.4029	6.9872	-3.6651	26.6176
-96.0536	-16.5338	7.7064	3.3389	-3.8544	26.575
-96.2046	-16.5526	54.7821	-20.2289	-4.2158	26.7834
-96.2433	-16.5758	20.6985	-7.6433	-4.2588	26.6869
-96.3517	-16.4974	-12.5207	25.3516	-4.5084	26.8915
-96.5724	-16.4146	13.3845	-4.9425	-4.6245	26.8219
-96.4253	-16.4698	73.3303	-47.2816	-5.029	26.9338
-95.9684	-16.3395	23.364	-19.4977	-4.7579	27.0961
-95.3992	-16.2136	36.5701	-13.504	-4.418	27.158
-95.2056	-16.0976	20.6985	-7.6433	-4.4825	27.3317
-95.1669	-16.0744	30.6781	-22.1985	-4.5599	27.2854
-95.1282	-16.0513	46.5496	-28.0592	-4.7019	27.4127
-95.1282	-16.0513	75.9929	-28.0611	-4.9644	27.3972
-95.1978	-15.9497	11.7055	-9.9825	-5.3688	27.5091
-95.1591	-15.9265	41.7663	-21.0827	-5.4075	27.4859
-95.0468	-15.9309	-12.5207	25.3516	-5.7388	27.5707
-95.0855	-15.9541	30.892	-5.2225	-6.1131	27.559
-95.3101	-15.9452	-20.5043	36.9957	-6.5563	27.6477
-95.5037	-16.0612	15.0205	0.6381	-6.6853	27.9952
-95.5812	-16.1076	45.3469	-16.7449	-6.2851	28.4472
-95.7012	-16.2511	9.5565	25.8956	-5.2825	28.9765
-95.4031	-16.2876	-0.0003	-0.0001	-2.7221	30.58
-94.048	-16.1927	-32.9104	6.4922	7.8808	36.1481
-91.9958	-15.6803	-41.6362	-16.7116	39.9458	43.237
-90.8421	-15.8493	-64.3375	-18.3371	57.5333	33.5191
-90.7376	-16.0017	-69.5446	-45.8764	59.9114	26.3063
-89.2159	-15.5921	-47.1642	-57.9638	53.5592	18.6813
-87.2605	-14.7793	-49.8422	-67.2829	48.9975	14.1809
-85.7968	-14.046	-42.0003	-54.0232	47.9215	12.4042
-83.6593	-12.6225	-49.7036	-62.3862	45.985	10.6079
-79.574	-9.8175	-61.573	-52.6433	43.3428	8.8847
-77.7733	-8.3807	-68.8339	-42.0531	41.6559	7.521
-77.3666	-7.7788	-50.4956	-63.7805	40.834	6.8874
-77.5215	-7.8716	-65.8774	-38.7967	40.5584	6.0146
-77.9435	-8.0527	-43.8607	-62.7821	40.468	5.7481
-78.6367	-8.3962	-68.8339	-42.0531	40.7735	5.8602
-79.5234	-8.8556	-79.4815	-33.7733	40.6918	5.7405
-80.4876	-9.3613	-71.6459	-54.2839	40.0678	5.2962
-81.3743	-9.8207	-49.2878	-70.5612	40.1022	5.246
-82.4082	-10.2249	-64.2816	-65.0247	40.4852	5.4044
-83.5233	-10.7495	-62.3662	-61.0465	40.6057	5.5473
-84.17	-10.9217	-64.3483	-53.4551	40.6874	5.6671
-84.3132	-10.7925	-53.2177	-78.9308	40.838	5.6864
-84.6539	-10.8532	-67.4875	-66.8021	41.6857	6.1231
-85.1456	-10.9327	-72.4709	-48.6191	42.3184	6.7141
-85.378	-11.0719	-73.2955	-40.4056	42.7143	7.0927
-85.8775	-11.2994	-62.8156	-48.3611	44.0138	7.5874
-86.4157	-11.55	-68.5832	-58.7509	44.2634	8.02
-87.0623	-11.7223	-88.1409	-23.4539	44.2505	7.7999
-87.5541	-11.8018	-70.0973	-56.5425	43.7944	7.6684
-88.1271	-12.0017	-80.805	-47.3784	43.2221	7.4675
-88.8086	-12.1231	-73.6207	-53.5547	42.7359	7.4596
-89.4552	-12.2954	-73.8599	-44.2829	42.3185	7.3513
-90.4851	-12.6256	-73.0628	-38.355	43.5622	8.8037
-92.3785	-12.9712	-54.3847	-60.6577	51.2049	14.8652
-94.1674	-13.4692	-60.9769	-40.6062	63.2719	26.9021
-95.7935	-13.7264	-67.1653	-23.2153	74.6254	43.3256
-97.4468	-13.7849	-41.0405	-52.316	75.5103	58.3671
-98.6277	-14.1338	-56.0479	-27.3205	62.194	61.2976
-99.7235	-14.2884	-61.5871	-12.868	45.1934	57.4922
-100.0835	-14.0024	-52.2746	-5.0992	29.2983	52.154
-100.2497	-12.8836	-53.6532	8.9414	16.9572	46.8904
-100.598	-12.3755	-55.6604	20.5528	12.1891	43.3284
-100.9349	-12.3623	-37.1965	2.8647	10.2954	40.3543
-101.0625	-11.9371	-12.5041	-1.043	8.7073	38.1294
-101.3451	-11.6046	6.5092	-2.4038	6.8741	36.8197
-101.6006	-11.471	-11.8221	10.55	4.5204	36.1895
-101.7516	-11.4897	-0.9479	-5.3102	2.184	35.8527
-101.7981	-11.6609	-23.1095	2.8732	0.1444	35.4814
-101.8755	-11.7073	20.6985	-7.6433	-1.5853	35.2954
-101.771	-11.8597	15.0205	0.6381	-3.1988	35.1791
-101.771	-11.8597	-33.7602	63.8184	-4.2228	35.5572
-101.8485	-11.9061	-11.9757	17.4662	-5.264	35.6418
-101.8524	-11.9801	-5.4662	15.0625	-6.4645	35.5603
-101.9956	-11.8509	-25.174	30.0239	-7.0926	35.6798
-101.9607	-11.9017	59.7656	-37.7747	-7.8628	35.9267
-102.0343	-11.8741	28.3783	-10.4791	-8.6415	36.0268
-102.2589	-11.8652	22.7003	-2.1977	-9.0933	35.9688
-102.1466	-11.8697	55.3265	-31.3001	-9.6742	36.2582
-101.6936	-11.8133	1.409	12.5238	-9.7086	36.3084
-101.2367	-11.683	1.3647	28.9204	-9.3686	36.3703
-100.896	-11.6223	22.7003	-2.1977	-9.3213	36.5402
-100.7449	-11.6035	42.8066	-2.7626	-9.5665	36.8182
-100.8146	-11.5019	-31.0984	32.2115	-9.5278	36.8414
-100.8921	-11.5483	69.0312	-4.7621	-9.8203	36.9494
-100.9617	-11.4467	59.9783	-27.8077	-10.1946	36.9377
-100.8494	-11.4511	22.7003	-2.1977	-10.1172	36.9841
-100.6984	-11.4324	76.0857	-15.0511	-10.3323	37.1385
-100.772	-11.4048	24.5946	3.9623	-10.371	37.1153
-100.8843	-11.4003	16.4029	6.9872	-10.5904	37.1963
-100.9966	-11.3959	-44.7139	45.9353	-10.7367	37.2503
-101.1785	-11.2899	18.5807	-12.5213	-10.9906	37.3815
-101.256	-11.3363	11.7055	-9.9825	-11.2143	37.3892
-101.3334	-11.3826	17.5401	14.2514	-11.3993	37.42
-101.5115	-11.2026	-20.5043	36.9957	-11.6187	37.501
-101.3992	-11.207	-15.5375	45.2073	-11.9457	37.6592
-101.0197	-11.1231	-25.174	30.0239	-11.6101	37.6478
-100.6016	-11.016	38.3578	-25.0343	-11.3003	37.8332
-100.226	-11.0061	-66.6063	90.4532	-11.2142	38.0263
-100.2608	-10.9553	1.3647	28.9204	-11.2787	38.2001
-100.4467	-10.9232	15.0205	0.6381	-11.3561	38.1537
-100.4079	-10.9	41.7663	-21.0827	-11.5412	38.1846
-100.2957	-10.9045	-12.5207	25.3516	-11.6487	38.2618
-100.3653	-10.8029	22.7003	-2.1977	-11.653	38.1884
-100.3653	-10.8029	0.8312	5.8776	-11.937	38.4432
-100.3305	-10.8537	1.409	12.5238	-11.9413	38.3698
-100.435	-10.7013	15.0205	0.6381	-12.2683	38.528
-100.586	-10.72	13.3845	-4.9425	-12.5651	38.5627
-100.6596	-10.6924	45.3469	-16.7449	-12.8534	38.7441
-100.7292	-10.5908	6.5092	-2.4038	-12.9609	38.8213
-100.7679	-10.614	30.892	-5.2225	-13.0728	38.8251
-100.8802	-10.6096	27.7685	19.1706	-13.4041	38.91
-100.7641	-10.54	26.317	11.0104	-13.4428	38.8868
-100.2336	-10.4373	13.3845	-4.9425	-13.0598	39.0452
-99.6683	-10.3854	39.6689	-8.4635	-12.7156	39.1805
-99.5483	-10.2419	-7.8577	42.3715	-12.5263	39.223
-99.2889	-10.3015	1.6686	20.112	-12.6295	39.3736
-99.3585	-10.1999	27.8032	-25.9723	-12.6295	39.3736
-99.3237	-10.2507	-6.315	31.7562	-12.8533	39.3813
-99.3237	-10.2507	1.3647	28.9204	-12.9608	39.4585
-99.2772	-10.0795	17.5401	14.2514	-12.8834	39.5048
-99.2036	-10.1071	26.317	11.0104	-12.8834	39.5048
-99.2424	-10.1303	28.3783	-10.4791	-13.064	39.609
-99.3895	-10.0751	-15.5375	45.2073	-13.3523	39.7904
-99.3895	-10.0751	26.317	11.0104	-13.3222	39.6669
-99.4282	-10.0983	13.3845	-4.9425	-13.4986	39.8444
-99.5018	-10.0707	28.3783	-10.4791	-13.8299	39.9293
-99.5753	-10.0431	24.5946	3.9623	-13.9761	39.9833
-99.6489	-10.0154	38.3578	-25.0343	-14.1267	39.964
-99.7224	-9.9878	1.6686	20.112	-14.273	40.018
-99.4243	-10.0243	9.3484	17.2762	-14.0106	40.0335
-98.8551	-9.8984	-13.6291	34.457	-13.6276	40.192
-98.5454	-9.7129	39.6689	-8.4635	-13.2833	40.3272
-98.2899	-9.8465	46.9265	-37.5318	-13.279	40.4006
-98.3595	-9.7449	13.3845	-4.9425	-13.3435	40.5744
-98.3595	-9.7449	15.5307	60.1235	-13.3736	40.6979
-98.3595	-9.7449	76.0857	-15.0511	-13.3435	40.5744
-98.2511	-9.8233	-12.5207	25.3516	-13.3823	40.5512
-98.2472	-9.7493	24.5946	3.9623	-13.4898	40.6284
-98.2472	-9.7493	70.3149	-19.7797	-13.4124	40.6747
-98.3595	-9.7449	45.9187	3.7724	-13.6404	40.609
-98.5105	-9.7637	1.3647	28.9204	-14.0449	40.7209
-98.5841	-9.7361	9.3484	17.2762	-14.3417	40.7555
-98.6228	-9.7593	52.9732	-6.5167	-14.3504	40.6088
-98.7738	-9.778	18.5461	32.6217	-14.7204	40.6704
-98.9209	-9.7228	41.7663	-21.0827	-15.0173	40.7051
-98.9596	-9.746	17.5401	14.2514	-15.3959	40.62
-98.9984	-9.7692	35.7521	7.5264	-15.9165	40.6623
-98.7738	-9.778	39.6689	-8.4635	-16.1876	40.5
-98.2434	-9.6753	20.6985	-7.6433	-16.1188	40.3997
-97.7129	-9.5727	-6.315	31.7562	-16.1102	40.5464
-97.5967	-9.5031	88.0611	-32.5174	-16.1145	40.473
-97.4883	-9.5815	-15.5375	45.2073	-16.0198	40.8129
-97.0587	-9.9692	15.0205	0.6381	-15.5031	42.6087
-95.6107	-10.2486	-29.6758	24.0021	-14.5559	46.0073
-93.3149	-10.8087	-23.6879	-6.9589	0.8359	51.6813
-91.6076	-11.1478	-0.5877	-35.3925	32.8694	51.8849
-90.2293	-11.3257	-52.0953	-12.8495	52.44	39.0358
-89.1375	-11.2451	-57.1293	-34.9051	57.7307	30.5225
-87.7397	-11.053	-47.4127	-52.0246	54.0332	22.2921
-86.3186	-10.4169	-73.0628	-38.355	49.3077	16.2779
-84.8084	-9.5125	-64.6739	-45.6508	49.6904	15.162
-82.6322	-8.0658	-36.2556	-73.8742	49.9012	14.9343
-81.0446	-7.1149	-57.5643	-37.2184	48.1583	13.2539
-80.3863	-6.7207	-78.053	-10.1239	46.7683	11.8555
-80.301	-6.5263	-66.1876	-40.8937	45.2837	10.7544
-80.6883	-6.7582	-62.6841	-35.3279	44.0013	9.916
-81.3001	-6.9813	-58.417	-41.5515	43.7259	9.6804
-81.726	-7.2364	-56.3867	-44.5127	44.2078	9.6149
-82.2604	-7.4131	-65.083	-47.5238	44.3928	9.584
-82.9535	-7.7565	-52.8361	-62.9163	44.1905	9.3214
-83.8634	-7.9431	-66.1876	-40.8937	44.7241	9.4992
-84.5913	-8.2358	-50.6643	-68.5536	45.0124	9.955
-85.1605	-8.3616	-57.3201	-66.0959	45.5977	10.3761
-85.6909	-8.4643	-37.1234	-67.0316	46.6434	11.002
-86.6008	-8.6509	-59.4412	-65.3127	48.0118	12.0335
-88.1574	-9.0098	-68.5281	-40.0294	49.7805	13.517
-89.9036	-9.4106	-71.4028	-43.1661	50.9596	14.506
-91.1891	-9.6072	-61.5623	-64.5295	51.4416	15.0776
-92.4358	-9.7805	-60.8572	-67.7885	52.6207	16.0666
-93.8065	-10.1714	-66.0345	-50.9958	53.7224	17.0092
-95.7037	-10.591	-87.7641	-32.9264	54.1572	18.0482
-97.5274	-11.0382	-75.981	-43.4997	55.2287	19.1143
-99.0104	-11.4247	-62.8156	-48.3611	56.2617	20.7945
-99.9899	-11.5097	-92.602	-19.2577	62.0627	26.0367
-100.4661	-11.2932	-51.4792	-54.4588	72.2708	37.598
-100.4467	-10.9232	-83.6756	-4.7117	79.5968	52.8849
-100.2104	-10.7101	-56.0479	-27.3205	74.7716	65.4994
-100.0709	-10.1966	-30.5949	-36.7192	59.5969	70.503
-99.9198	-9.461	-62.4412	-1.3451	43.5266	71.7142
-99.6137	-8.6327	-59.5664	1.7915	30.7474	70.4357
-99.8807	-8.0043	-69.3107	31.7781	21.3845	69.4324
-100.1323	-7.7967	-41.9798	9.8412	15.2659	68.3182
-100.531	-7.5338	-32.9432	-8.0393	11.0704	66.2316
-101.0769	-7.2157	1.1511	-32.5111	7.4381	61.6504
-101.6963	-6.87	-7.7208	-8.0194	4.1412	56.4207
-102.095	-6.6071	-17.7465	12.7376	2.127	53.3036
-102.4976	-6.4182	-23.6879	-6.9589	-0.0032	51.3914
-103.1635	-6.2437	0.8478	-20.5169	-1.4104	50.3367
-103.6204	-6.374	-17.7465	12.7376	-2.8304	49.6991
-104.0385	-6.4811	-17.7465	12.7376	-4.0868	49.3009
-103.8914	-6.5364	-18.1196	19.7348	-4.8742	49.2543
-103.2526	-6.5121	9.9792	-14.5553	-5.0421	48.9415
-102.8344	-6.405	-33.7602	63.8184	-5.5928	49.1073
-102.6873	-6.4602	-17.7003	6.5358	-5.8983	48.9952
-102.6912	-6.5342	24.5946	3.9623	-6.277	48.9102
-102.6951	-6.6082	-11.9757	17.4662	-6.4964	48.9912
-102.6912	-6.5342	-6.8723	-3.1226	-6.9956	48.7632
-102.6912	-6.5342	-25.174	30.0239	-7.2322	48.5507
-102.726	-6.4834	16.4888	-16.959	-7.6453	48.5158
-102.5441	-6.5894	-70.2574	77.2953	-8.1229	48.6547
-102.5789	-6.5386	-5.6783	8.2813	-8.1746	48.4114
-102.7686	-6.5806	-17.7465	12.7376	-8.6952	48.4537
-102.7725	-6.6546	-20.5043	36.9957	-9.19	48.2991
-102.8074	-6.6038	-11.8221	10.55	-9.5557	48.4341
-102.8035	-6.5298	11.7055	-9.9825	-9.7106	48.3414
-102.8422	-6.553	-6.315	31.7562	-10.0893	48.2563
-102.9932	-6.5717	-35.0882	26.0006	-10.4249	48.2678
-102.9196	-6.5994	16.4029	6.9872	-10.6787	48.399
-102.4666	-6.543	-12.5207	25.3516	-10.1925	48.4069
-102.0485	-6.4359	13.3845	-4.9425	-10.1796	48.627
-101.82	-6.3708	5.1959	-7.5788	-9.9214	48.5691
-101.7077	-6.3752	23.364	-19.4977	-9.8784	48.6657
-101.7504	-6.4724	6.5092	-2.4038	-9.8827	48.5923
-101.8278	-6.5188	-22.8516	47.9081	-10.0634	48.6965
-101.7891	-6.4956	18.5807	-12.5213	-10.1709	48.7737
-101.7542	-6.5464	-19.0302	27.7552	-10.1709	48.7737
-101.8665	-6.542	35.1172	-28.6731	-10.2097	48.7505
-101.9827	-6.6115	-5.6783	8.2813	-10.2785	48.8509
-102.0563	-6.5839	-20.5043	36.9957	-10.3947	48.7814
-102.1337	-6.6303	33.5745	-18.0579	-10.6227	48.7156
-102.397	-6.6447	-44.7139	45.9353	-10.8465	48.7233
-102.4009	-6.7187	-19.0302	27.7552	-10.9971	48.7039
-102.5131	-6.7142	-12.5041	-1.043	-11.2251	48.6382
-102.7029	-6.7562	-12.0685	4.4562	-11.4144	48.5957
-102.8539	-6.775	-0.0003	-0.0001	-11.6038	48.5531
-102.5945	-6.8346	-13.6291	34.457	-11.6726	48.6535
-102.064	-6.7319	-36.7303	34.2911	-11.1089	48.7078
-101.762	-6.6944	-11.9757	17.4662	-10.6314	48.5689
-101.5414	-6.7772	7.7064	3.3389	-10.5152	48.6384
-101.5723	-6.6524	-25.174	30.0239	-10.584	48.7388
-101.611	-6.6756	-0.0003	-0.0001	-10.7346	48.7195
-101.6885	-6.722	-29.7268	50.4468	-10.9239	48.6769
-101.6497	-6.6988	14.4184	-21.0299	-10.8895	48.6267
-101.6149	-6.7496	1.409	12.5238	-10.8551	48.5765
-101.6885	-6.722	-12.5041	-1.043	-10.8938	48.5534
-101.7698	-6.8424	1.409	12.5238	-11.0487	48.4606
-101.8434	-6.8148	9.9792	-14.5553	-11.2381	48.4181
-102.0292	-6.7827	-17.7465	12.7376	-11.5005	48.4026
-102.1454	-6.8523	-11.9757	17.4662	-11.5737	48.4296
-102.2267	-6.9727	-42.3801	55.1191	-11.9437	48.4912
-102.2654	-6.9959	-0.9479	-5.3102	-11.7329	48.2635
-102.3429	-7.0422	-36.7303	34.2911	-12.318	48.4795
-102.3855	-7.1394	7.7064	3.3389	-12.331	48.2594
-102.3429	-7.0422	5.1959	-7.5788	-12.3267	48.3328
-101.735	-6.8932	-18.1196	19.7348	-11.8017	48.3638
-101.2471	-6.8877	-19.0302	27.7552	-11.2811	48.3215
-101.1697	-6.8413	5.1959	-7.5788	-11.1993	48.4413
-101.1349	-6.8921	9.9792	-14.5553	-11.0487	48.4606
-101.0613	-6.9197	-20.5043	36.9957	-11.1606	48.4645
-101.0265	-6.9705	-13.6291	34.457	-11.2338	48.4915
-101.0304	-7.0445	15.0205	0.6381	-11.1262	48.4143
-101.0265	-6.9705	-6.1441	2.2686	-11.2037	48.3679
-100.9529	-6.9981	18.5807	-12.5213	-11.0574	48.3139
-101.0652	-6.9937	-19.0302	27.7552	-11.208	48.2945
-101.2897	-6.9849	18.3334	22.6546	-11.3242	48.225
-101.2588	-7.1097	7.7064	3.3389	-11.6554	48.3098
-101.2975	-7.1329	18.5807	-12.5213	-11.6641	48.1631
-101.375	-7.1792	1.409	12.5238	-11.7372	48.1901
-101.5608	-7.1472	30.6781	-22.1985	-11.8577	48.0472
-101.5647	-7.2212	25.8948	-15.222	-11.9696	48.051
-101.7505	-7.1892	28.3783	-10.4791	-12.0858	47.9814
-101.7583	-7.3372	-11.9757	17.4662	-12.2708	48.0123
-101.5956	-7.0964	-5.6783	8.2813	-12.0126	47.9544
-100.8484	-7.1505	-6.315	31.7562	-11.5565	48.0859
-100.5503	-7.187	-24.0439	21.9225	-11.1478	48.0474
-100.5116	-7.1638	1.409	12.5238	-10.7477	47.8622
-100.4767	-7.2146	12.4041	-24.7841	-10.6358	47.8583
-100.4032	-7.2422	46.5496	-28.0592	-10.61	47.6614
-100.3684	-7.293	-23.3784	14.8172	-10.9973	47.4296
-100.3684	-7.293	-53.2888	71.0295	-11.1135	47.36
-100.2948	-7.3206	-18.1196	19.7348	-11.2985	47.3909
-100.3335	-7.3438	0.8312	5.8776	-11.2641	47.3407
-100.4187	-7.5382	-5.6455	22.8128	-11.2985	47.3909
-100.4962	-7.5846	49.1041	-11.9475	-11.9008	47.9506
-100.322	-7.8386	8.7231	9.823	-11.4618	48.4257
-99.9155	-7.9535	-0.0003	-0.0001	-11.7282	50.2484
-99.18	-8.2296	-25.174	30.0239	-12.1665	53.5963
-97.9992	-8.5974	-23.1128	8.5344	-11.0512	58.5821
-96.5938	-8.9741	-38.9573	20.5699	5.2737	61.0628
-95.235	-9.522	-32.7573	-3.6099	39.234	56.5441
-94.1743	-10.0333	-61.45	-16.2547	57.5008	43.7641
-93.4039	-10.3603	-59.4693	-31.4922	62.8133	36.2549
-92.6335	-10.6872	-79.9816	-15.5965	63.4061	31.0882
-91.5533	-10.8286	-42.1798	-47.5472	62.9795	27.6473
-90.8331	-10.684	-59.9929	-47.3793	61.77	25.5075
-90.2252	-10.5349	-63.4637	-39.688	60.5349	24.2019
-89.6483	-10.261	-74.7562	-28.3963	60.0227	23.1166
-89.2223	-10.0059	-45.5544	-54.7349	60.397	23.1283
-88.99	-9.8668	-33.7795	-62.9062	61.2577	23.7851
-88.7538	-9.6537	-56.9851	-46.4283	62.9961	24.7549
-88.7073	-9.4825	-61.4334	-42.6492	64.9841	25.5202
-88.6646	-9.3853	-57.5792	-48.2705	66.2191	26.1886
-88.6569	-9.2373	-59.4693	-31.4922	66.8	26.5364
-88.7653	-9.1589	-50.591	-44.4413	66.9937	26.6523
-88.9124	-9.1037	-65.2441	-34.3826	66.8861	26.7295
-89.2144	-9.1412	-24.4315	-49.4529	66.8087	26.6831
-89.5125	-9.1047	-34.437	-58.8401	66.1072	26.1925
-89.8493	-9.0915	-67.19	-17.2838	65.5263	25.8447
-90.1513	-9.129	-37.2238	-51.5888	65.1218	25.3194
-90.5656	-9.1621	-79.4367	-24.1191	64.3558	25.0025
-90.5308	-9.2129	-67.5153	-31.07	63.8868	24.6509
-90.7902	-9.1533	-57.5643	-37.2184	63.2498	23.9865
-91.3555	-9.2052	-59.3056	-53.4805	62.7249	23.9555
-92.1918	-9.4194	-34.4172	-68.0308	61.4039	23.731
-93.1714	-9.5044	-66.0345	-50.9958	59.6742	23.5451
-94.6736	-9.5441	-70.3498	-49.4023	60.1953	26.0515
-95.8738	-9.5462	-86.0199	-24.2371	64.667	32.1969
-97.1554	-9.6688	-72.6024	-15.2852	72.0396	43.8307
-98.5802	-9.6621	-93.9648	10.2953	76.5429	58.1358
-99.9585	-9.4842	-64.5127	-11.7877	69.6093	70.4793
-101.2245	-9.3108	-62.4412	-1.3451	50.7857	74.4313
-102.3821	-9.2157	-32.7573	-3.6099	29.0741	73.1151
-103.532	-8.9727	-37.2808	-10.6358	13.9628	71.5732
-104.3101	-8.7938	-38.1066	14.071	7.3233	69.227
-105.4174	-8.4536	-17.9165	0.9556	4.0479	63.7269
-106.1103	-8.0802	-23.6879	-6.9589	2.3733	58.7603
-106.2302	-7.507	-38.9573	20.5699	1.4305	56.0722
-105.9977	-6.6511	1.409	12.5238	0.7891	54.6973
-105.2851	-5.9377	-13.887	-10.5779	-0.2266	53.3106
-104.7662	-5.3402	-28.1271	-0.4843	-1.0613	53.0941
-104.3015	-5.062	-12.0685	4.4562	-1.7713	53.0938
-104.3595	-4.7384	6.4797	-22.5965	-2.5243	52.997
-104.3517	-4.5904	-18.3262	-4.1033	-3.1181	52.4292
-104.2355	-4.5208	-14.7311	-14.7642	-4.0561	52.3632
-104.4949	-4.4611	13.3845	-4.9425	-4.5338	51.8649
-104.6846	-4.5031	5.1959	-7.5788	-5.4848	51.5788
-104.7969	-4.4987	-0.0003	-0.0001	-6.3669	51.1924
-104.8356	-4.5219	1.3647	28.9204	-6.9952	50.6747
-104.9905	-4.6146	-0.9479	-5.3102	-7.8042	50.2612
-105.1454	-4.7074	-31.0984	32.2115	-8.2776	49.8363
-105.219	-4.6798	-17.7003	6.5358	-8.8756	49.8322
-105.2925	-4.6522	-12.5041	-1.043	-9.5038	49.9517
-105.37	-4.6986	-29.7268	50.4468	-9.7061	49.6891
-105.4126	-4.7957	15.0205	0.6381	-10.5236	49.7661
-105.2964	-4.7262	33.5745	-18.0579	-10.4978	49.5691
-104.7002	-4.7991	-5.6783	8.2813	-10.2784	49.4881
-104.3556	-4.6644	1.6686	20.112	-10.1579	49.631
-104.0923	-4.65	46.5496	-28.0592	-10.1622	49.5576
-103.9374	-4.5573	9.1109	36.1057	-10.1966	49.6078
-103.8639	-4.5849	-13.6291	34.457	-10.2052	49.4611
-103.9723	-4.5064	25.8948	-15.222	-10.6354	49.7699
-103.7942	-4.6865	-5.4662	15.0625	-10.7172	49.6501
-103.8639	-4.5849	-5.6783	8.2813	-10.8721	49.5574
-103.9026	-4.6081	22.7003	-2.1977	-10.9926	49.4145
-103.9761	-4.5804	-17.7003	6.5358	-11.3025	49.229
-103.9374	-4.5573	-12.5207	25.3516	-11.6768	49.2173
-104.0845	-4.502	-20.5043	36.9957	-11.7973	49.0744
-104.162	-4.5484	17.5401	14.2514	-12.0254	49.0087
-104.1271	-4.5992	18.5479	-27.0527	-12.3653	48.9468
-104.2355	-4.5208	27.8032	-25.9723	-12.4083	48.8502
-104.313	-4.5672	-5.4662	15.0625	-12.8214	48.8153
-104.3517	-4.5904	13.3845	-4.9425	-13.0882	48.7264
-104.1233	-4.5252	-12.5041	-1.043	-13.1613	48.7534
-103.5192	-4.4501	28.3783	-10.4791	-12.6837	48.6146
-103.2521	-4.3618	-11.9757	17.4662	-12.3825	48.6533
-103.1398	-4.3662	-5.6783	8.2813	-12.2707	48.6495
-103.2482	-4.2878	38.3578	-25.0343	-12.3782	48.7267
-103.2869	-4.311	-25.174	30.0239	-12.5632	48.7575
-103.2172	-4.4126	30.6781	-22.1985	-12.5676	48.6841
-103.2521	-4.3618	-29.6758	24.0021	-12.7181	48.6648
-103.2869	-4.311	-6.315	31.7562	-12.9118	48.5488
-103.2482	-4.2878	-18.1196	19.7348	-13.1097	48.3596
-103.3256	-4.3342	7.7064	3.3389	-13.6304	48.4019
-103.5154	-4.3761	20.6985	-7.6433	-13.9746	48.2666
-103.5889	-4.3485	0.8312	5.8776	-14.3145	48.2047
-103.8057	-4.1917	55.3265	-31.3001	-14.7663	48.1466
-103.8096	-4.2657	-15.5375	45.2073	-15.3601	48.2159
-103.887	-4.3121	55.1182	-40.5566	-15.6312	48.0537
-103.8831	-4.2381	17.5401	14.2514	-15.9367	47.9416
-103.6934	-4.1961	-36.2363	52.8505	-16.311	47.9299
-103.0933	-4.195	-19.0302	27.7552	-16.2078	47.7793
-102.679	-4.1619	-5.4662	15.0625	-15.9797	47.845
-102.377	-4.1244	-11.9757	17.4662	-16.0185	47.8218
-102.377	-4.1244	0.8312	5.8776	-16.2422	47.8295
-102.5202	-3.9952	1.409	12.5238	-16.1947	48.6366
-102.4854	-4.046	-19.0302	27.7552	-15.8887	51.2974
-102.3383	-4.1012	55.3265	-31.3001	-16.9553	54.1276
-102.3112	-4.3	50.9888	-34.5338	-18.237	56.4751
-102.2067	-4.4524	-12.5041	-1.043	-17.7462	58.4679
-102.0945	-4.4568	-17.7003	6.5358	-10.0659	58.1808
-101.8506	-4.8125	-18.3262	-4.1033	4.546	58.2203
-101.6107	-5.2421	-40.2812	27.9182	22.7553	59.7053
-100.6313	-5.8739	-83.0685	43.7177	42.6244	55.742
-99.3034	-6.2969	-68.135	14.289	55.7119	48.9227
-98.4594	-6.6515	-61.7499	-9.2845	61.98	44.3217
-97.9988	-7.1639	-49.0892	-20.819	66.1571	39.7431
-97.7628	-7.6675	-40.7615	-32.9651	68.2819	35.8474
-97.2092	-7.8376	-61.9126	-27.9287	68.9911	32.0245
-95.9624	-7.6643	-55.772	-24.5361	68.4226	28.711
-94.5686	-7.5462	-55.6338	-21.551	67.4927	26.2431
-93.0469	-7.1365	-32.4804	-41.458	66.5932	24.926
-91.5871	-6.4772	-97.819	15.9166	66.7824	24.3314
-90.6229	-5.9715	-51.2669	-46.4033	67.445	24.1617
-90.2783	-5.8367	-39.3382	-60.8536	68.4648	24.3474
-90.224	-5.5176	-55.8571	-42.4968	69.3727	24.5369
-90.4447	-5.4347	-51.5706	-36.9577	69.7643	24.8421
-90.6035	-5.6015	-53.1223	-28.4008	70.3538	25.3366
-91.0913	-5.607	-30.1404	-44.871	71.0682	26.0474
-91.2384	-5.5518	-27.3721	-59.4247	71.4598	26.3526
-91.5365	-5.5153	-59.4693	-31.4922	72.3936	26.9823
-91.6836	-5.4601	-73.1433	-8.6008	72.8627	27.3339
-91.7185	-5.4093	-53.9106	-33.5448	73.3618	27.5619
-92.0553	-5.396	-37.652	-63.3129	73.6889	28.0408
-92.4348	-5.4799	-59.8355	-33.9059	73.9643	28.2765
-92.698	-5.4943	-46.5992	-50.2634	73.7278	28.7012
-92.5858	-5.4987	-49.9839	-42.379	74.0505	29.1068
-92.6167	-5.3739	-69.815	-19.3506	74.5454	29.2614
-92.88	-5.3882	-38.7408	-64.6726	74.7821	29.4739
-93.4375	-5.2921	-64.3756	-15.1744	74.1109	29.4968
-94.1964	-5.46	-36.2953	-56.1298	74.0852	30.3309
-95.0288	-5.6002	-20.9939	-50.7223	74.7008	31.9028
-96.0859	-5.7316	-61.45	-16.2547	75.9189	34.1893
-97.1777	-5.8122	-40.5956	-43.4842	77.5199	36.6343
-98.4167	-5.8375	-67.7474	-7.0698	80.7135	42.0147
-99.7757	-6.0064	-38.4015	-21.4295	83.4768	47.0666
-101.8471	-6.172	-63.6959	7.8144	86.9377	55.7218
-103.8255	-5.9952	-36.0321	-28.7891	86.1954	66.6037
-105.2425	-5.8405	-28.2958	-5.2574	78.2801	75.5988
-106.9615	-5.7234	-41.2417	-0.477	60.029	80.389
-108.2044	-5.8227	-54.4869	14.4595	38.2097	78.5128
-108.909	-5.6714	-32.7573	-3.6099	22.9519	75.7506
-109.3077	-5.4085	11.7565	-36.4272	14.0965	73.2106
-109.4315	-4.9093	-12.0685	4.4562	6.9659	67.5973
-109.3229	-4.271	-33.2793	12.2884	3.8412	62.7537
-109.0711	-3.7619	-17.7003	6.5358	2.3046	59.4978
-109.0168	-3.4427	-33.2793	12.2884	1.5038	57.3196
-109.4504	-3.129	-40.2812	27.9182	0.0966	55.6277
-109.7485	-3.0926	-40.2812	27.9182	-1.7064	54.8316
-109.8182	-2.9909	-24.0439	21.9225	-3.0919	54.7809
-109.7872	-3.1157	-23.1128	8.5344	-3.8879	54.5876
-109.9382	-3.1345	15.0205	0.6381	-4.985	54.9927
-109.826	-3.1389	-13.6291	34.457	-5.4927	55.2551
-109.7524	-3.1665	-6.8723	-3.1226	-5.9832	55.1739
-109.6827	-3.2682	-13.6291	34.457	-7.0374	55.0384
-109.8298	-3.2129	2.3502	-16.5736	-7.4074	55.1
-109.644	-3.245	-39.7637	80.5414	-7.8936	55.0922
-109.342	-3.2074	9.1109	36.1057	-8.0141	54.9492
-108.9626	-3.1235	-5.6783	8.2813	-7.8378	54.7717
-108.5096	-3.0672	13.3845	-4.9425	-7.5839	54.6404
-108.1688	-3.0065	59.9783	-27.8077	-7.6183	54.6906
-107.983	-3.0385	38.3578	-25.0343	-7.627	54.5439
-107.9133	-3.1401	-12.5207	25.3516	-7.7819	54.4512
-107.9482	-3.0893	-10.5746	55.257	-7.7862	54.3778
-107.8746	-3.1169	-20.5043	36.9957	-8.0272	54.0919
-107.8359	-3.0937	7.7064	3.3389	-8.1908	53.8525
-107.7236	-3.0982	-11.8221	10.55	-8.6038	53.8176
-107.7972	-3.0705	6.5092	-2.4038	-8.8749	53.6553
-107.7584	-3.0474	-39.7637	80.5414	-9.2148	53.5934
-107.8668	-2.9689	-0.0003	-0.0001	-9.6322	53.4851
-107.9791	-2.9645	38.3578	-25.0343	-9.8689	53.2727
-108.0178	-2.9877	17.5401	14.2514	-9.9894	53.1297
-108.0178	-2.9877	9.5565	25.8956	-10.4412	53.0717
-107.832	-3.0197	36.5701	-13.504	-10.5961	52.9789
-107.2667	-2.9679	15.0205	0.6381	-10.2691	52.8207
-106.8059	-2.7636	28.3783	-10.4791	-9.9679	52.8594
-106.5039	-2.726	22.7003	-2.1977	-9.7572	52.6317
-106.3568	-2.7812	24.5946	3.9623	-9.6109	52.5776
-106.3878	-2.6564	-6.1441	2.2686	-9.8002	52.5351
-106.2406	-2.7117	15.0205	0.6381	-9.8433	52.4386
-106.2368	-2.6377	-18.7664	58.2818	-9.9207	52.3922
-106.0161	-2.7205	0.8312	5.8776	-9.8906	52.2686
-106.0509	-2.6697	28.3783	-10.4791	-10.0111	52.1257
-106.0858	-2.6189	27.7685	19.1706	-10.1918	52.2299
-106.0161	-2.7205	16.4029	6.9872	-10.351	52.0638
-106.1284	-2.7161	1.6686	20.112	-10.506	51.9711
-106.1671	-2.7393	-20.5043	36.9957	-10.8803	51.9594
-106.1284	-2.7161	20.6985	-7.6433	-10.9276	51.7894
-106.2406	-2.7117	17.5401	14.2514	-11.1557	51.7237
-106.2794	-2.7349	7.6374	48.532	-11.4225	51.6348
-106.2058	-2.7625	8.7231	9.823	-11.6505	51.5691
-105.7915	-2.7294	30.892	-5.2225	-11.2031	51.5538
-105.2262	-2.6775	22.7003	-2.1977	-10.6093	51.4845
-104.8855	-2.6168	-114.9484	198.5642	-10.3856	51.4768
-104.6222	-2.6024	31.9326	-31.9952	-10.0155	51.4152
-104.5448	-2.556	22.7003	-2.1977	-9.8736	51.2878
-104.5487	-2.63	9.5565	25.8956	-10.2049	51.3726
-104.4712	-2.5836	17.5401	14.2514	-10.2092	51.2992
-104.3202	-2.5649	15.0205	0.6381	-10.1317	51.3456
-104.3202	-2.5649	22.7003	-2.1977	-10.3598	51.2799
-104.3202	-2.5649	36.5701	-13.504	-10.1533	50.9787
-104.3977	-2.6113	-29.7268	50.4468	-10.4545	50.94
-104.3977	-2.6113	38.3578	-25.0343	-10.5793	50.7237
-104.5138	-2.6808	-15.5375	45.2073	-10.9149	50.7352
-104.63	-2.7504	-39.7637	80.5414	-11.2248	50.5497
-104.7036	-2.7228	-18.7664	58.2818	-11.4141	50.5072
-104.781	-2.7692	13.3845	-4.9425	-11.6809	50.4183
-104.932	-2.7879	76.0857	-15.0511	-11.9433	50.4028
-105.0095	-2.8343	46.5496	-28.0592	-12.1413	50.2135
-104.932	-2.7879	-95.3852	146.2102	-12.2188	50.1671
-104.479	-2.7316	33.5745	-18.0579	-11.7369	50.1016
-104.026	-2.6753	41.7663	-21.0827	-11.1173	49.8354
-103.724	-2.6378	39.6689	-8.4635	-11.1087	49.9821
-103.4607	-2.6234	9.3484	17.2762	-10.8893	49.9011
-103.4646	-2.6974	37.9351	15.4165	-11.0011	49.9049
-103.5072	-2.7946	35.7521	7.5264	-11.1216	49.762
-103.4298	-2.7482	20.6985	-7.6433	-11.0872	49.7118
-103.3523	-2.7019	0.334	39.3466	-11.3841	49.7465
-103.2749	-2.6555	-24.0439	21.9225	-11.4702	49.5534
-103.3097	-2.6047	30.6781	-22.1985	-11.9478	49.6922
-103.0077	-2.5671	-23.8922	74.6807	-12.051	49.8428
-102.6205	-2.3352	16.4029	6.9872	-13.105	50.9816
-101.9778	-2.237	1.6686	20.112	-13.9609	52.3098
-101.8345	-2.3662	70.1449	-31.5617	-14.7006	54.3446
-101.854	-2.7362	-44.7139	45.9353	-15.1778	56.395
-101.6915	-3.2122	11.7055	-9.9825	-15.186	58.797
-101.5599	-3.5634	-17.7465	12.7376	-10.1688	60.2429
-100.6424	-3.9455	-13.1332	-6.0209	6.2591	61.2986
-99.0125	-4.3311	-24.1663	-11.2802	32.2002	62.7398
-97.824	-4.5509	-41.2417	-0.477	50.8855	55.8026
-96.9296	-4.6603	-45.7925	-39.0913	58.8133	44.479
-96.2947	-4.71	-72.2851	-21.3247	60.6105	37.5556
-95.2532	-4.8746	-62.3954	-32.9606	60.7515	32.3308
-94.5021	-4.8547	-68.2179	-37.9325	62.6916	29.7402
-93.4722	-4.5246	-48.1144	-53.7896	64.8041	29.4474
-92.6629	-4.1115	-44.2789	-44.4856	65.2256	28.3547
-91.9814	-3.9901	-74.8451	-20.3795	65.8451	28.0885
-91.4315	-3.5174	-39.1478	-55.0765	66.5679	27.6716
-90.8507	-3.1696	-47.1247	-30.6154	67.2649	27.4518
-90.4247	-2.9145	-52.1519	-39.217	68.1555	27.3478
-90.4131	-2.6925	-64.9553	-32.0153	68.4783	27.7534
-90.4479	-2.6417	-65.5629	-36.6263	68.5084	27.6298
-90.746	-2.6052	-55.3963	-40.3804	69.029	27.5875
-91.1216	-2.6151	-52.6901	-41.3797	69.7132	27.7847
-91.652	-2.7178	-49.2994	-40.2703	69.8036	28.0511
-91.8843	-2.857	-7.2584	-66.8519	70.0102	28.3872
-91.8805	-2.783	-12.4217	-66.9694	70.3372	28.229
-91.8727	-2.635	-41.0405	-52.316	70.5007	28.4684
-92.3179	-2.5433	-10.6631	-73.2788	70.518	28.7619
-93.0032	-2.7387	-23.3896	-68.5795	70.6385	28.9048
-93.8783	-2.9762	-37.2238	-51.5888	70.3976	29.2562
-94.8308	-3.2599	-49.9839	-42.379	70.3503	29.7234
-95.3187	-3.2655	-49.3054	-49.2641	69.8168	29.5456
-95.7717	-3.3218	-37.5237	-44.6185	69.0508	29.2287
-96.6002	-3.388	-42.9181	-61.3684	68.2764	29.4022
-97.8547	-3.7093	-50.5758	-32.1149	68.5778	30.7153
-99.752	-4.1289	-70.002	-30.1518	69.3483	32.3799
-101.5214	-4.257	-59.8355	-33.9059	70.1059	33.8244
-103.1359	-4.2922	-81.6934	-35.1681	71.4315	36.0338
-104.6033	-4.3827	-58.9466	-43.5675	73.8288	39.9464
-106.032	-4.45	-43.9797	-31.7767	77.5609	48.7638
-106.9651	-4.3638	-61.485	-19.3904	80.7463	56.5461
-107.3404	-3.657	-64.3756	-15.1744	81.3422	67.946
-107.2434	-2.5239	-71.5726	15.5583	71.379	77.6973
-106.7242	-1.2097	-33.6675	-15.9058	48.6956	79.5512
-106.9486	-0.484	-61.3384	28.8342	24.9268	75.6586
-107.5602	0.0097	-33.9838	18.7333	12.7796	71.7852
-107.9977	0.2493	-23.1095	2.8732	8.4284	65.7828
-108.2067	0.5542	-9.7576	-16.6007	5.8414	59.916
-108.3421	0.8314	14.4184	-21.0299	5.4623	57.2822
-108.4931	0.8126	15.0205	0.6381	4.5585	55.8917
-108.6829	0.7706	-0.9479	-5.3102	2.9837	55.7985
-108.7681	0.5763	-12.5207	25.3516	0.9745	56.5779
-108.7759	0.4283	42.797	-31.5089	-0.9488	56.9133
-108.892	0.3587	37.9351	15.4165	-1.8092	57.5309
-108.9385	0.1875	9.1109	36.1057	-2.4804	57.5538
-108.9734	0.2383	33.5745	-18.0579	-3.2849	57.8509
-108.7914	0.1323	52.9732	-6.5167	-3.7582	58.0631
-108.4585	0.045	33.3715	0.7214	-4.3219	58.0089
-108.0055	0.1013	33.3715	0.7214	-4.3907	58.1093
-107.5137	0.1808	16.4888	-16.959	-4.012	58.1944
-107.2156	0.1444	8.7231	9.823	-4.154	58.3217
-107.0298	0.1123	76.0857	-15.0511	-4.2444	58.0553
-106.9523	0.1587	46.5496	-28.0592	-4.58	58.0667
-106.8401	0.1543	-12.5207	25.3516	-4.7737	57.9508
-106.693	0.0991	7.6374	48.532	-4.963	57.9083
-106.6542	0.1223	-6.315	31.7562	-5.0103	57.7383
-106.6503	0.1963	26.317	11.0104	-5.3847	57.7266
-106.5807	0.0947	45.3469	-16.7449	-5.5095	57.5103
-106.6194	0.0715	42.8066	-2.7626	-5.8795	57.572
-106.7665	0.1267	20.6985	-7.6433	-6.1162	57.3595
-106.6581	0.0483	30.892	-5.2225	-6.2367	57.2166
-106.7239	0.2239	9.3484	17.2762	-6.2927	56.8999
-106.6891	0.1731	42.8066	-2.7626	-6.7144	56.7183
-106.7626	0.2007	33.3715	0.7214	-6.9381	56.726
-106.0812	0.3221	20.6985	-7.6433	-6.7962	56.5986
-105.5507	0.4248	-5.6783	8.2813	-6.6112	56.5677
-105.1403	0.3839	-31.0984	32.2115	-6.6499	56.5446
-105.0281	0.3795	59.9783	-27.8077	-6.5423	56.4674
-104.9893	0.4027	-7.8577	42.3715	-6.7059	56.2279
-105.1016	0.4071	26.317	11.0104	-7.0028	56.2625
-104.9197	0.3011	16.4029	6.9872	-7.0028	56.2625
-104.9158	0.3751	-15.5375	45.2073	-7.162	56.0964
-104.9506	0.4259	52.9732	-6.5167	-7.1663	56.0231
-104.9545	0.3519	6.5092	-2.4038	-7.1663	56.0231
-105.1016	0.4071	27.7685	19.1706	-7.5363	56.0847
-104.9971	0.2547	80.7977	-58.1729	-7.403	55.8106
-105.1055	0.3331	-12.5207	25.3516	-7.7085	55.6985
-105.2952	0.2912	0.334	39.3466	-7.8247	55.629
-105.3378	0.194	30.892	-5.2225	-8.1345	55.4435
-105.1907	0.1388	18.3334	22.6546	-8.212	55.3971
-104.8926	0.1023	16.4029	6.9872	-7.8119	55.2119
-104.4048	0.1078	9.3484	17.2762	-7.2612	55.046
-104.064	0.1685	7.7064	3.3389	-7.1106	55.0654
-103.7969	0.2569	26.317	11.0104	-7.0761	55.0152
-103.7659	0.1321	45.3469	-16.7449	-7.2224	55.0692
-103.8434	0.0857	-15.1153	71.4398	-7.1278	54.7719
-103.8085	0.0349	42.8066	-2.7626	-7.3128	54.8027
-103.6575	0.0537	30.892	-5.2225	-7.2096	54.6522
-103.7389	-0.0667	37.9351	15.4165	-7.2182	54.5054
-103.8512	-0.0623	13.3845	-4.9425	-7.3301	54.5092
-103.855	-0.1363	18.5807	-12.5213	-7.2742	54.1887
-104.0409	-0.1042	36.5701	-13.504	-7.3947	54.0458
-104.0796	-0.1274	-27.0139	39.3994	-7.6615	53.9569
-104.1183	-0.1506	24.5946	3.9623	-7.7132	53.7136
-104.1609	-0.2478	9.3484	17.2762	-7.8681	53.6209
-104.1958	-0.197	27.7685	19.1706	-8.0574	53.5783
-103.9403	-0.3307	39.6689	-8.4635	-8.023	53.5281
-103.4137	-0.302	41.7663	-21.0827	-7.3905	53.482
-102.8484	-0.2501	1.6686	20.112	-6.8699	53.4397
-102.6548	-0.1341	15.0205	0.6381	-6.6161	53.3085
-102.5464	-0.2125	30.892	-5.2225	-6.4354	53.2043
-102.5077	-0.1894	17.5401	14.2514	-6.6247	53.1617
-102.4341	-0.217	40.9164	36.2435	-6.5903	53.1115
-102.3219	-0.2214	-1.7978	52.016	-6.444	53.0575
-102.1786	-0.3506	-42.3801	55.1191	-6.2375	52.7564
-102.1051	-0.3782	-10.5746	55.257	-6.315	52.71
-102.1748	-0.2766	24.5946	3.9623	-6.3968	52.5903
-102.2522	-0.323	9.5565	25.8956	-6.7668	52.652
-102.2948	-0.4202	55.3265	-31.3001	-6.8959	52.3623
-102.2948	-0.4202	69.2008	-41.2587	-6.9002	52.2889
-102.3335	-0.4434	45.3469	-16.7449	-7.309	52.3274
-102.4497	-0.5129	45.9187	3.7724	-7.4639	52.2347
-102.6007	-0.5317	69.0312	-4.7621	-7.3349	51.8872
-102.2678	-0.619	41.7663	-21.0827	-7.365	52.0107
-101.6676	-0.6179	49.1041	-11.9475	-6.8788	52.0186
-101.2882	-0.534	42.8066	-2.7626	-6.2506	51.8991
-100.8778	-0.5749	-47.145	68.7608	-5.8806	51.8374
-100.7616	-0.5053	69.0312	-4.7621	-5.8849	51.7641
-100.692	-0.6069	115.8646	-58.4896	-5.8935	51.6173
-100.6959	-0.6809	15.5307	60.1235	-6.0571	51.3778
-100.5139	-0.7869	24.5946	3.9623	-6.2077	51.3585
-100.51	-0.7129	1.3647	28.9204	-6.4013	51.2426
-100.4404	-0.8145	1.3647	28.9204	-6.2594	51.1152
-100.4094	-0.9393	35.7521	7.5264	-6.4399	51.8566
-100.483	-0.9117	20.6985	-7.6433	-6.7281	52.6751
-100.5643	-1.0321	17.5401	14.2514	-6.508	55.78
-100.4405	-1.5313	8.7231	9.823	-3.7058	62.1295
-98.9889	-2.4536	-6.8723	-3.1226	23.9603	61.1345
-97.0067	-3.2731	-11.4218	-34.728	49.7655	48.832
-95.9345	-4.2793	-27.011	-38.0425	60.8435	40.8805
-94.7228	-4.7719	-19.5507	-40.7973	64.5553	33.4751
-92.9921	-4.6671	-7.4093	-45.2806	62.0586	27.2377
-91.513	-4.3546	-48.1325	-35.6784	60.677	24.7117
-90.638	-4.1172	-40.7615	-32.9651	60.9521	23.673
-90.3282	-3.9316	-49.3054	-49.2641	62.6045	24.4497
-90.0958	-3.7925	-43.8929	-51.2627	64.0288	25.1607
-90.2313	-3.5153	-24.8631	-56.1531	65.5478	25.5744
-90.2971	-3.3397	-47.1642	-57.9638	65.7629	25.42
-90.4442	-3.2844	-42.135	-37.893	66.3008	25.6712
-90.5177	-3.2568	-19.6812	-48.7331	66.275	25.8681
-90.8507	-3.1696	-79.8599	13.7831	66.5418	25.9571
-91.0365	-3.1375	-31.1605	-46.9682	66.8601	25.6521
-91.1836	-3.0823	-34.2982	-52.6691	66.9333	25.6251
-91.3268	-2.9531	-33.2447	-32.8545	66.6708	25.6095
-91.5823	-2.8194	-32.3367	-55.5299	66.5847	25.4164
-91.9192	-2.8062	-53.2972	-43.442	66.4255	25.2503
-92.0741	-2.8989	6.0935	-86.3258	66.7009	25.486
-92.3257	-2.6913	-41.3533	-45.5659	66.6407	25.7331
-92.6316	-2.8028	-67.2281	-14.1211	66.7612	25.876
-92.7516	-2.9464	-35.3558	-47.7805	66.9892	25.9418
-93.0807	-2.7851	-47.1247	-30.6154	67.1786	25.9843
-93.2317	-2.8039	-24.4315	-49.4529	67.3938	26.4671
-93.646	-2.837	-41.0405	-52.316	67.5229	26.7567
-94.4784	-2.9772	-56.7631	-32.4915	66.5118	26.7178
-95.3148	-3.1915	-22.2636	-52.6149	64.6917	26.2654
-96.2866	-3.1285	-49.2994	-40.2703	63.8916	27.273
-97.7888	-3.1682	-32.682	-61.3998	64.1244	29.9608
-99.5621	-3.3702	-58.417	-41.5515	67.4084	35.6077
-101.134	-3.3083	-57.1293	-34.9051	75.9691	49.6515
-102.5239	-3.3524	-48.8147	-2.1786	79.1692	67.2116
-104.1036	-3.4385	-53.6532	8.9414	67.9975	79.9205
-105.6059	-3.4782	-54.4869	14.4595	47.2504	82.2964
-106.535	-3.318	-5.9034	-22.2221	29.5312	78.344
-107.0846	-2.3571	-24.1663	-11.2802	19.4748	73.1737
-106.9603	-0.706	-28.3057	10.4519	13.7034	65.2593
-106.9407	0.3807	-31.0984	32.2115	12.0368	57.2535
-107.3703	0.7684	20.6985	-7.6433	11.8166	52.8743
-107.5601	0.7264	-42.1427	36.2897	11.984	50.6384
-107.4013	0.8932	-5.6455	22.8128	10.7059	49.8734
-106.8708	0.9959	25.8948	-15.222	8.9418	49.7377
-106.4914	1.0798	25.8948	-15.222	6.967	50.4669
-106.1546	1.0665	9.3484	17.2762	5.2718	50.8679
-105.7829	1.0024	45.9187	3.7724	3.8908	51.5278
-105.4073	1.0124	36.5701	-13.504	3.0175	52.5625
-105.0666	1.0731	1.6686	20.112	2.6217	52.8211
-104.8847	0.9671	48.9793	11.3384	1.7182	53.3421
-104.9195	1.0179	48.9793	11.3384	0.8105	53.7898
-104.9156	1.0919	18.3334	22.6546	-0.2522	54.1447
-104.8072	1.0135	48.9793	11.3384	-1.0826	54.6387
-104.8072	1.0135	-6.315	31.7562	-1.5558	54.8509
-104.7724	0.9626	41.7663	-21.0827	-2.2227	54.9473
-104.6949	1.009	59.2706	-15.7015	-2.6185	55.2059
-104.2419	1.0653	18.3334	22.6546	-2.64	55.4762
-103.5334	0.988	40.9836	50.7248	-2.2613	55.5613
-103.1888	1.1227	59.2706	-15.7015	-1.8052	55.6927
-103.0726	1.1923	48.9793	11.3384	-2.0203	55.8471
-103.0765	1.1183	37.9351	15.4165	-2.1709	55.8278
-102.9681	1.0399	-23.8922	74.6807	-2.1752	55.7544
-102.852	1.1095	9.1109	36.1057	-2.257	55.6346
-102.7784	1.0818	17.804	44.778	-2.1925	55.4609
-102.8907	1.0863	88.0611	-32.5174	-2.171	55.1906
-102.8559	1.0355	17.5401	14.2514	-2.3561	55.2214
-102.7823	1.0078	59.2706	-15.7015	-2.4034	55.0515
-102.8636	0.8875	56.9629	-0.3058	-2.5239	54.9086
-103.0843	0.9703	64.7616	-34.7841	-2.7563	54.7695
-103.0843	0.9703	49.1041	-11.9475	-3.0188	54.7539
-102.9759	0.8919	54.7821	-20.2289	-3.2511	54.6148
-103.1656	0.8499	-1.6754	85.2187	-3.5954	54.4796
-103.2005	0.9007	45.9187	3.7724	-3.3502	54.2016
-102.5655	0.851	-1.7978	52.016	-2.907	54.1129
-101.8919	0.8245	74.4323	1.9397	-2.0981	53.8892
-101.6595	0.9636	48.9793	11.3384	-1.7324	53.7542
-101.4001	0.904	42.8066	-2.7626	-1.4356	53.7195
-101.3614	0.9272	4.4864	64.2017	-1.5044	53.8199
-101.3614	0.9272	69.0312	-4.7621	-1.2592	53.5419
-101.3653	0.8532	18.3334	22.6546	-1.4141	53.4492
-101.2143	0.8719	18.3334	22.6546	-1.4098	53.5226
-101.0246	0.9139	36.5701	-13.504	-1.242	53.1983
-101.0981	0.9415	9.5565	25.8956	-1.3195	53.1519
-101.0981	0.9415	39.7569	24.7894	-1.5519	53.0128
-101.1756	0.8951	64.9486	-23.983	-1.4573	52.7155
-101.1795	0.8211	33.3715	0.7214	-1.6853	52.6498
-101.3692	0.7792	45.9187	3.7724	-1.6682	52.3061
-101.5589	0.7372	8.7231	9.823	-2.0081	52.2442
-101.5628	0.6632	7.6374	48.532	-2.2318	52.2518
-101.3808	0.5572	86.2636	19.4987	-1.9565	51.8503
-101.0401	0.6179	18.5461	32.6217	-1.6597	51.8156
-100.5871	0.6742	15.5307	60.1235	-1.0315	51.6961
-100.2116	0.6841	64.0174	-10.5949	-0.584	51.6808
-100.0993	0.6797	54.7821	-20.2289	-0.584	51.6808
-100.2154	0.6101	45.9187	3.7724	-0.7045	51.5379
-100.1806	0.5593	141.0346	-39.034	-0.7175	51.3178
-100.0683	0.5549	97.4098	-15.2411	-0.6142	51.1672
-100.0683	0.5549	70.3149	-19.7797	-0.6142	51.1672
-99.9987	0.4533	27.7685	19.1706	-0.5884	50.9703
-99.9987	0.4533	39.6689	-8.4635	-0.554	50.9201
-99.9987	0.4533	10.3928	80.7625	-0.7563	50.6574
-100.1845	0.4853	64.7616	-34.7841	-0.9112	50.5647
-100.1923	0.3374	55.74	64.0177	-1.0317	50.4218
-100.3084	0.2678	75.9929	-28.0611	-1.0834	50.1785
-100.4246	0.1982	18.5461	32.6217	-1.2641	50.2827
-100.5408	0.1286	28.7126	28.8676	-1.277	50.0626
-100.2775	0.143	15.0205	0.6381	-1.2426	50.0124
-99.6038	0.1164	59.2706	-15.7015	-0.4639	49.9122
-99.1857	0.2236	37.9351	15.4165	0.3536	49.8353
-98.9263	0.1639	56.9629	-0.3058	0.7581	49.7234
-98.8914	0.1131	82.4159	-9.7045	1.5368	49.6233
-98.8527	0.1363	48.9793	11.3384	2.4834	49.1988
-98.7095	0.0071	9.1109	36.1057	3.3094	48.6314
-98.7482	-0.0161	59.2706	-15.7015	3.7008	48.2994
-98.632	0.0535	70.1449	-31.5617	4.1267	47.9172
-98.5972	0.0026	26.317	11.0104	4.2773	47.9366
-98.6398	-0.0945	80.2037	9.8541	4.6905	48.6087
-98.7947	-0.1873	26.317	11.0104	5.2888	49.8871
-98.605	-0.1453	36.5701	-13.504	5.2335	53.3935
-98.3495	-0.279	46.5496	-28.0592	3.3457	58.776
-98.0554	-1.1062	24.5946	3.9623	4.1422	61.5181
-97.8349	-1.9058	-60.4625	88.1846	10.36	63.6826
-97.386	-2.6403	74.9282	-38.5382	22.6189	66.915
-96.8518	-3.1803	-10.877	-20.3856	35.6474	66.7146
-95.1406	-3.4455	-22.0345	-23.9497	50.0558	59.4825
-92.868	-3.7327	-37.906	-18.089	60.4625	51.5541
-91.5556	-4.4518	-10.6113	-49.5334	71.4677	45.5412
-89.794	-4.4717	-24.9878	-32.8672	75.8035	38.58
-87.8541	-3.9549	-8.5312	-38.944	72.0331	31.651
-86.3517	-3.1985	-11.5119	-56.5851	68.9602	27.6879
-84.7254	-2.2244	10.4506	-71.3295	68.874	26.8576
-82.433	-0.7082	-9.9497	-54.8005	68.9557	26.3401
-81.8017	-0.1151	-47.1247	-30.6154	70.0055	26.4023
-81.9372	0.1621	-13.6799	-53.4231	70.0055	26.4023
-82.0494	0.1665	-6.5886	-51.0188	70.0183	25.9852
-82.1578	0.2449	-23.9288	-30.1097	70.4357	26.0935
-82.4986	0.1842	-17.0042	-44.5114	70.3195	26.0239
-82.7657	0.0959	-7.7817	-57.9625	70.4658	25.9699
-83.2149	0.1135	-22.0213	-45.3202	71.0812	26.2675
-83.7144	-0.1139	-8.9117	-72.0888	71.6535	26.4685
-84.2448	-0.2166	-19.6812	-48.7331	72.0364	26.6269
-84.934	-0.4861	-32.4804	-41.458	72.4668	26.9553
-85.2942	-0.9168	-19.5507	-40.7973	73.095	27.473
-86.3668	-1.3442	-31.1605	-46.9682	73.3189	28.1025
-87.7026	-1.7859	-7.7817	-57.9625	74.0462	29.0334
-89.6812	-2.3258	-55.4525	-18.4693	74.7048	30.7019
-91.7333	-2.8382	-17.41	-52.0457	75.9618	33.6487
-93.8125	-3.1518	-73.1433	-8.6008	78.3078	39.2296
-95.6323	-3.525	-30.5949	-36.7192	80.7785	44.3896
-97.665	-3.6674	-58.6976	-23.4558	84.7429	53.3461
-99.7596	-3.5601	-19.9061	-31.5951	85.6538	69.465
-101.378	-3.6694	-37.1122	-6.4998	72.0592	79.7326
-103.2247	-3.1271	-54.4869	14.4595	45.6839	80.4384
-104.5717	-1.6405	-4.5646	-18.5183	23.9965	70.642
-105.4155	-0.5691	14.4184	-21.0299	19.3689	58.6693
-106.5382	-0.5249	-6.1441	2.2686	18.6485	48.9647
-107.1926	-0.8452	-6.315	31.7562	18.1569	43.1488
-107.6418	-0.8275	6.5092	-2.4038	16.6633	39.9895
-107.301	-0.7668	0.8312	5.8776	15.7939	38.5488
-106.4995	-0.5017	13.3845	-4.9425	15.4754	38.2166
-105.4773	-0.3195	55.3265	-31.3001	15.6089	38.5796
-104.6797	-0.1285	20.9279	-23.4336	14.9893	38.8459
-104.3003	-0.0446	64.0174	-10.5949	14.3053	39.2859
-104.1841	0.025	28.7126	28.8676	13.7589	39.5251
-103.9286	-0.1087	18.3334	22.6546	13.1307	39.6446
-103.8899	-0.0855	18.3334	22.6546	12.95	39.7488
-103.9247	-0.0347	52.9732	-6.5167	12.1756	39.9224
-103.8512	-0.0623	28.8482	40.6998	11.5732	39.8449
-103.7776	-0.0899	16.4029	6.9872	11.1429	39.5165
-103.5956	-0.1959	28.3783	-10.4791	10.2479	39.5471
-103.7001	-0.0435	16.4029	6.9872	9.7187	39.4427
-103.7737	-0.0159	28.3783	-10.4791	8.9572	39.8363
-103.704	-0.1175	54.3012	31.3011	8.5527	39.9482
-103.7118	-0.2655	42.797	-31.5089	8.0838	40.2338
-103.6034	-0.3439	36.5701	-13.504	7.83	40.365
-103.1891	-0.3108	27.7685	19.1706	7.9548	40.5813
-102.6665	-0.3561	15.0205	0.6381	8.1871	40.7204
-102.4032	-0.3418	-6.315	31.7562	8.2001	40.9405
-102.2909	-0.3462	1.3647	28.9204	8.0237	41.1181
-102.2213	-0.4478	80.2037	9.8541	7.5204	41.4539
-102.2639	-0.545	9.1109	36.1057	7.1331	41.2221
-102.229	-0.5958	70.1449	-31.5617	6.5092	41.415
-102.0045	-0.6046	48.9793	11.3384	6.3199	41.3724
-102.1555	-0.6234	110.7617	-34.715	5.9843	41.3839
-102.1981	-0.7206	9.5565	25.8956	5.8294	41.2912
-102.3491	-0.7394	42.8066	-2.7626	5.3088	41.3335
-102.353	-0.8134	-1.6754	85.2187	5.1237	41.3643
-102.5001	-0.7581	37.9351	15.4165	4.7838	41.3024
-102.5466	-0.9293	18.3334	22.6546	4.5084	41.0668
-102.7673	-0.8465	17.5401	14.2514	3.9878	41.1091
-102.7711	-0.9205	1.3647	28.9204	3.721	41.0202
-102.7324	-0.8973	17.804	44.778	3.5274	40.9043
-102.2059	-0.8686	49.1041	-11.9475	3.7941	40.9932
-101.6058	-0.8675	40.9164	36.2435	4.1642	40.9315
-101.4509	-0.7747	-32.0839	77.7056	4.2416	40.9779
-101.3386	-0.7792	61.0475	6.8821	4.4654	40.9702
-101.2302	-0.8576	1.6686	20.112	4.4223	40.8737
-101.1915	-0.8344	20.6985	-7.6433	4.233	40.8311
-101.2302	-0.8576	59.2706	-15.7015	4.3362	40.6805
-101.3386	-0.7792	27.7685	19.1706	4.0393	40.7152
-101.2341	-0.9316	8.7231	9.823	3.8801	40.5491
-101.087	-0.9868	35.7521	7.5264	3.6951	40.5799
-101.1296	-1.084	88.0611	-32.5174	3.566	40.2903
-101.4586	-0.9227	45.9187	3.7724	3.0066	40.3094
-101.3929	-1.0983	54.7821	-20.2289	2.6581	40.1007
-101.5051	-1.0939	33.3715	0.7214	2.0944	40.0465
-101.509	-1.1679	18.5461	32.6217	1.7459	39.8379
-101.7336	-1.1591	73.3303	-47.2816	1.208	39.5867
-101.7336	-1.1591	-6.315	31.7562	0.5668	39.4861
-101.3968	-1.1723	1.3647	28.9204	0.1581	39.5245
-100.8315	-1.1204	30.892	-5.2225	0.2872	39.8142
-100.3359	-0.967	121.6359	-50.5752	0.3003	40.6715
-99.8867	-0.9846	82.3831	-24.236	0.1844	41.8763
-99.7357	-0.9659	49.1041	-11.9475	-0.1726	42.7953
-99.848	-0.9615	45.9187	3.7724	-0.9598	44.023
-99.7048	-1.0907	27.5989	55.6672	-1.4244	44.382
-99.5886	-1.0211	38.7714	70.2835	-1.7944	44.4437
-99.5538	-1.0719	-22.8862	93.051	-1.8675	44.4707
-99.6312	-1.1183	-13.6291	34.457	-2.1988	44.5555
-99.5964	-1.1691	104.4642	-25.5301	-2.4183	44.6365
-99.7396	-1.0399	74.4323	1.9397	-2.6678	44.8411
-99.6739	-1.2155	82.3831	-24.236	-3.0292	45.0495
-99.7552	-1.3359	-15.1153	71.4398	-3.1109	44.9298
-99.8326	-1.3822	9.3484	17.2762	-3.4465	44.9413
-100.0185	-1.3502	70.3149	-19.7797	-3.5283	44.8215
-100.1734	-1.443	52.9732	-6.5167	-3.8338	44.7095
-99.8791	-1.5534	28.3783	-10.4791	-3.9027	44.8098
-99.4222	-1.4231	48.9793	11.3384	-3.5971	44.9219
-98.9692	-1.3668	70.3149	-19.7797	-2.9431	45.2427
-98.5976	-1.4309	45.3469	-16.7449	-2.7666	45.7023
-98.4466	-1.4121	82.4159	-9.7045	-2.7277	46.3626
-98.2685	-1.5921	49.1041	-11.9475	-2.8781	47.6176
-98.4504	-1.4861	64.7616	-34.7841	-3.7597	49.7799
-98.2027	-1.7677	64.9486	-23.983	-4.5683	51.9151
-98.2027	-1.7677	45.3469	-16.7449	-5.0712	54.1624
-98.0556	-1.823	18.5461	32.6217	-4.7996	57.5106
-97.7962	-1.8826	79.3673	-45.0128	-4.0071	61.4536
-97.1033	-2.2559	-25.174	30.0239	5.1798	65.1831
-95.7639	-3.1738	0.8312	5.8776	26.9987	65.1478
-93.894	-3.9889	-28.3057	10.4519	45.2531	54.6964
-92.5856	-4.7819	-57.3833	10.3188	54.5366	45.4584
-92.4038	-5.6047	-16.6988	-22.1716	65.2885	42.7626
-91.7496	-6.0012	-15.7371	-33.1345	70.9715	38.3776
-90.4215	-5.7075	-13.0546	-45.9698	70.7212	34.122
-88.5513	-5.0891	-19.6812	-48.7331	69.1329	30.6228
-86.9754	-4.3603	-38.9227	-24.5731	68.5259	29.1976
-85.7131	-3.891	-34.9237	-37.8945	68.926	29.0124
-84.6985	-3.14	-19.5507	-40.7973	69.7307	29.3525
-84.2261	-2.7137	-9.0319	-47.4553	71.3829	29.4921
-84.0169	-2.3018	-18.826	-53.8843	73.3711	30.8945
-83.8503	-1.987	19.2275	-74.5704	73.7627	31.1997
-83.8038	-1.8158	-11.5119	-56.5851	73.9906	30.6283
-83.7573	-1.6447	-30.1404	-44.871	73.6678	30.2227
-83.9005	-1.5154	-10.8423	-65.5285	73.3191	29.3769
-84.2761	-1.5254	-39.4697	-27.5197	72.4154	28.6235
-84.7717	-1.6789	-19.6812	-48.7331	71.4687	27.7737
-85.4183	-1.8511	-34.6713	-22.8069	70.9308	27.5225
-85.8326	-1.8842	-7.7817	-57.9625	70.6554	27.2868
-86.4444	-2.1073	-26.1198	-57.8256	70.8276	27.673
-87.1607	-2.1779	-22.2004	-36.9327	70.7286	27.897
-87.8848	-2.3966	-48.1325	-35.6784	71.1762	28.5189
-88.2564	-2.3325	-30.444	-58.2904	71.8863	29.1563
-88.4152	-2.4993	-36.632	-61.8529	72.5663	29.9172
-89.4761	-2.7047	-42.1798	-47.5472	72.8418	30.7901
-90.4169	-2.7665	-45.2069	-36.7587	73.7069	32.1574
-91.4352	-2.8747	-28.9925	-50.1302	74.6753	34.0113
-92.6859	-3.122	-12.3893	-77.8516	77.3696	37.8893
-94.7573	-3.2876	-56.7631	-32.4915	84.3506	49.2179
-96.9178	-3.7215	-53.1223	-28.4008	88.9137	61.3643
-99.0124	-3.6143	-27.8784	-28.6512	85.9043	74.3579
-101.1418	-3.4563	-32.9432	-8.0393	69.5774	84.5473
-103.1821	-3.0299	-44.9605	-7.7999	47.1867	86.9304
-104.6491	-1.6868	-24.1663	-11.2802	29.4457	81.3367
-105.3999	-0.2732	-9.7576	-16.6007	24.7408	70.592
-106.1586	0.2758	9.5788	-39.1466	21.7222	57.388
-106.8671	0.3531	5.1959	-7.5788	20.262	49.081
-107.0181	0.3343	-28.0831	4.7097	18.7725	44.7207
-106.6735	0.4691	0.8312	5.8776	17.6489	41.4997
-106.1547	0.3498	50.9888	-34.5338	15.8889	40.163
-105.4384	0.4204	-12.5207	25.3516	14.7184	39.3208
-104.877	0.3983	58.9724	-46.178	13.7674	39.0347
-104.7609	0.4679	70.1449	-31.5617	12.9413	38.9649
-104.3892	0.4038	33.3715	0.7214	12.2056	39.1616
-103.9362	0.4601	27.5989	55.6672	11.8399	39.2967
-103.7387	0.6501	104.4642	-25.5301	11.2547	39.5127
-103.6613	0.6964	70.3149	-19.7797	11.0955	39.3466
-103.6225	0.7196	45.3469	-16.7449	10.7943	39.3079
-103.5877	0.6688	18.5461	32.6217	10.1748	39.5742
-103.6651	0.6224	18.3334	22.6546	9.9251	39.1416
-103.7465	0.5021	16.4029	6.9872	9.2883	39.1143
-103.7504	0.4281	35.7521	7.5264	8.8365	39.0563
-103.82	0.5297	55.3265	-31.3001	8.4192	38.948
-103.8975	0.4833	-26.4462	61.1177	8.1911	38.8823
-103.7078	0.5253	-1.7978	52.016	7.8512	38.8204
-103.0341	0.4987	88.0611	-32.5174	8.1524	38.8591
-102.4997	0.6754	52.9732	-6.5167	8.6042	38.9172
-102.0894	0.6345	33.3715	0.7214	8.4579	38.9712
-101.9074	0.5285	8.7231	9.823	8.488	38.8476
-101.8687	0.5517	-32.3214	96.535	8.2298	38.9054
-101.9384	0.6533	69.0312	-4.7621	8.0749	38.8127
-101.7564	0.5473	30.892	-5.2225	7.92	38.72
-101.6829	0.5196	70.1449	-31.5617	7.2918	38.8395
-101.6829	0.5196	9.5565	25.8956	6.9562	38.851
-101.6132	0.418	49.1041	-11.9475	6.7195	38.6385
-101.799	0.4501	82.4159	-9.7045	6.2376	38.704
-101.8765	0.4037	90.9642	-61.927	5.7041	38.5262
-101.8804	0.3297	17.5401	14.2514	5.2953	38.5647
-101.9539	0.3573	17.5401	14.2514	4.9511	38.4294
-102.1785	0.3662	95.7678	-29.1784	4.3874	38.3751
-102.0352	0.2369	49.1041	-11.9475	3.7894	38.3711
-101.9926	0.3341	28.7126	28.8676	3.1569	38.4172
-101.6132	0.418	-33.7602	63.8184	3.1612	38.4906
-100.9743	0.4423	0.8312	5.8776	3.7205	38.4715
-100.591	0.6002	36.5701	-13.504	3.7722	38.7148
-100.3664	0.5914	70.3149	-19.7797	3.8023	38.5912
-100.2968	0.4898	-26.4462	61.1177	3.6517	38.5718
-100.3703	0.5174	15.0205	0.6381	3.471	38.6761
-100.2581	0.513	76.0857	-15.0511	3.5054	38.6259
-100.1845	0.4853	48.9793	11.3384	3.3548	38.6065
-100.1497	0.4345	17.5401	14.2514	3.2386	38.537
-100.2232	0.4622	24.5946	3.9623	3.0924	38.591
-100.1536	0.3605	26.317	11.0104	2.8686	38.5986
-100.382	0.2954	28.3783	-10.4791	2.6105	38.6565
-100.533	0.2766	49.1041	-11.9475	2.1673	38.7451
-100.6105	0.2302	39.6689	-8.4635	2.0081	38.579
-100.6879	0.1839	1.3647	28.9204	2.0081	38.579
-100.8041	0.1143	70.1449	-31.5617	1.9349	38.606
-100.8467	0.0171	59.2706	-15.7015	1.7242	38.8338
-100.5834	0.0314	49.1041	-11.9475	1.7801	39.1505
-99.871	0.0281	59.9783	-27.8077	2.3438	39.2047
-99.4916	0.112	75.9929	-28.0611	2.7526	39.1662
-99.3754	0.1816	56.9629	-0.3058	2.7138	39.1431
-99.3715	0.2556	18.3334	22.6546	2.645	39.2434
-99.2322	0.0524	42.8066	-2.7626	2.5288	39.1739
-99.1973	0.0016	75.9929	-28.0611	2.4815	39.004
-99.0851	-0.0029	54.7821	-20.2289	2.4427	38.9808
-99.0424	0.0943	64.7616	-34.7841	2.4126	39.1044
-99.0076	0.0435	39.2467	-34.6959	2.1502	39.0888
-99.0154	-0.1045	27.7685	19.1706	1.9652	39.1197
-99.0889	-0.0768	64.9486	-23.983	1.849	39.0501
-99.0928	-0.1508	36.5701	-13.504	1.7414	39.1273
-99.2129	-0.2944	33.3715	0.7214	1.7328	38.9806
-99.4374	-0.2856	49.1041	-11.9475	1.3972	38.992
-99.4762	-0.3088	-32.3214	96.535	1.281	38.9225
-99.3639	-0.3132	54.7821	-20.2289	1.0272	39.0537
-98.8025	-0.3353	93.2573	-40.0962	1.6209	38.9844
-98.2024	-0.3342	24.5946	3.9623	2.1114	39.0656
-97.7494	-0.2779	-7.8577	42.3715	2.4126	39.1044
-97.5674	-0.3839	0.334	39.3466	2.4901	39.1507
-97.61	-0.4811	49.1041	-11.9475	2.5202	39.0272
-97.8307	-0.3983	42.8066	-2.7626	2.4083	39.031
-97.6449	-0.4303	56.9629	-0.3058	2.4514	39.1275
-97.6488	-0.5043	45.3469	-16.7449	2.3782	39.1545
-97.6527	-0.5783	18.3334	22.6546	2.4815	39.004
-97.6565	-0.6523	1.3647	28.9204	2.3696	39.0078
-97.8424	-0.6203	17.5401	14.2514	2.1071	38.9923
-97.9276	-0.8146	22.7003	-2.1977	2.021	38.7992
-98.0438	-0.8842	-7.8577	42.3715	1.6467	38.7874
-98.1948	-0.903	37.9351	15.4165	1.281	38.9225
-98.3109	-0.9726	1.409	12.5238	1.0142	38.8336
-98.4619	-0.9913	26.317	11.0104	0.8206	38.7177
-98.0903	-1.0554	18.3334	22.6546	0.9668	38.6636
-97.3004	-1.0124	17.5401	14.2514	1.4961	38.7681
-96.8474	-0.9561	45.9187	3.7724	2.0554	38.749
-96.6925	-0.8633	17.804	44.778	2.2878	38.8881
-96.5842	-0.9417	30.892	-5.2225	2.4255	38.6873
-96.5145	-1.0433	59.2706	-15.7015	2.2792	38.7413
-96.5184	-1.1173	9.1109	36.1057	2.0554	38.749
-96.4835	-1.1681	70.3149	-19.7797	2.1243	38.6486
-96.3713	-1.1725	121.6359	-50.5752	2.1931	38.5482
-96.4487	-1.2189	24.5946	3.9623	2.0769	38.4786
-96.5997	-1.2377	64.0174	-10.5949	1.8532	38.4863
-96.7546	-1.3305	64.0174	-10.5949	1.6208	38.3472
-96.8359	-1.4508	6.5092	-2.4038	1.6596	39.0076
-97.0025	-1.7656	16.4888	-16.959	0.078	48.3253
-95.4502	-2.9142	11.7055	-9.9825	25.4708	62.6758
-92.7713	-4.0331	-41.2304	-9.1773	61.2704	46.233
-90.7504	-4.8295	-32.9432	-8.0393	64.1251	33.7839
-89.5194	-5.6689	-34.0325	-35.4498	63.1087	28.5741
-87.8082	-5.934	-46.1986	-25.035	61.4687	24.8316
-86.2324	-5.922	-37.2895	-57.7868	59.3384	22.2822
-85.0553	-5.647	-38.215	-36.6792	60.2591	22.0547
-84.3312	-5.4284	-17.3956	-67.0444	61.2746	22.167
-83.9711	-4.9977	-13.6799	-53.4231	61.9975	22.3874
-83.1192	-4.4875	-45.2069	-36.7587	63.0172	22.5731
-82.7319	-4.2555	-52.8464	-25.6164	64.7083	23.373
-82.4492	-3.8712	-54.4231	-35.9044	67.0966	24.5902
-82.1665	-3.4869	-7.3824	-62.6079	68.3917	25.0115
-81.9225	-3.1258	-37.5237	-44.6185	69.4158	25.2706
-81.7598	-2.885	-23.6021	-54.4072	69.8676	25.3287
-81.4849	-2.6487	-40.5956	-43.4842	69.7299	24.8923
-81.6281	-2.5194	-6.0001	-56.2589	69.5276	24.6296
-82.1198	-2.5989	-43.4112	-29.1004	69.6481	24.7725
-82.6851	-2.6508	-46.1986	-25.035	69.6137	24.8227
-83.0336	-2.8595	-49.7745	-26.7507	69.7857	24.5718
-83.5253	-2.939	-30.1404	-44.871	69.4674	24.8767
-83.7616	-3.1522	-50.5758	-32.1149	70.1344	25.4176
-84.2611	-3.3797	-9.0457	-75.6378	70.4529	25.7498
-85.2058	-3.5155	-64.5127	-11.7877	70.7155	26.4025
-85.6588	-3.5718	-40.7615	-32.9651	71.1502	27.4414
-86.4874	-3.638	-55.4525	-18.4693	71.9593	28.4921
-88.0129	-4.1217	-30.1116	-52.0035	71.6411	29.4342
-90.3128	-4.3524	-48.6577	-14.1188	73.9221	32.6402
-92.5391	-4.6107	-59.5664	1.7915	78.0322	38.3568
-94.9744	-4.5643	-38.9227	-24.5731	86.3559	50.2766
-96.9528	-4.3875	-10.6113	-49.5334	91.0619	67.3931
-99.3068	-4.2206	-35.3388	-25.8964	82.046	81.1802
-101.3702	-3.5214	-41.5118	4.4581	63.7778	86.3141
-102.5431	-2.2888	-21.1604	-20.5241	43.5896	86.7593
-103.5534	-1.5323	-37.0726	-2.0164	27.4668	83.2669
-104.2037	-1.0618	-28.3057	10.4519	20.1169	78.3718
-104.2966	-0.6874	12.4041	-24.7841	17.0907	70.7556
-104.2074	-0.419	-23.3784	14.8172	15.9016	62.6109
-103.7467	-0.2147	-42.3801	55.1191	15.169	56.5092
-103.1	-0.0424	3.8354	-12.2867	14.6479	54.0028
-102.6393	0.1619	27.7685	19.1706	13.2923	52.5543
-102.4108	0.227	24.5946	3.9623	11.9886	52.6233
-102.3721	0.2502	1.409	12.5238	10.8527	52.3681
-102.1436	0.3153	0.8312	5.8776	9.8801	51.7152
-102.0352	0.2369	39.6689	-8.4635	9.6606	51.159
-101.9617	0.2093	18.5807	-12.5213	9.1656	50.3672
-102.0352	0.2369	38.3578	-25.0343	8.9633	49.4674
-102.0352	0.2369	46.5496	-28.0592	8.2231	48.9535
-102.1088	0.2645	-13.6291	34.457	7.7024	48.3587
-102.2211	0.269	37.9351	15.4165	7.2763	48.1036
-102.2946	0.2966	20.6985	-7.6433	6.5879	47.8331
-102.1088	0.2645	58.9724	-46.178	5.9467	47.7325
-101.4739	0.2148	49.1041	-11.9475	5.908	47.7093
-100.8698	0.2899	7.6374	48.532	6.4286	47.667
-100.4865	0.4478	24.5946	3.9623	6.5835	47.7597
-100.2968	0.4898	46.5496	-28.0592	6.5405	47.6632
-100.1884	0.4113	33.3715	0.7214	6.42	47.5202
-100.1497	0.4345	89.4261	-3.5969	5.723	47.7401
-100.0683	0.5549	-97.9798	192.2984	5.525	47.5508
-100.0296	0.5781	9.1109	36.1057	5.7101	47.52
-99.9987	0.4533	9.3484	17.2762	5.4519	47.5779
-100.0026	0.3793	-1.7978	52.016	5.2496	47.3152
-100.1109	0.4577	45.3469	-16.7449	5.1291	47.1723
-100.1884	0.4113	82.3831	-24.236	5.043	46.9792
-100.3394	0.3926	-36.9458	124.631	4.7332	46.7937
-100.3123	0.1938	49.1041	-11.9475	4.5697	46.5542
-100.4556	0.323	-22.8862	93.051	4.4492	46.4113
-99.9716	0.2545	42.8066	-2.7626	4.6944	46.1333
-99.4451	0.2832	42.8066	-2.7626	5.2838	45.9907
-98.9882	0.4135	16.4029	6.9872	5.5807	45.956
-98.7249	0.4279	27.7685	19.1706	5.9722	45.624
-98.5817	0.2986	45.9187	3.7724	6.041	45.5236
-98.6591	0.2522	54.7821	-20.2289	5.9893	45.2803
-98.69	0.377	18.3334	22.6546	6.0065	44.9367
-98.5778	0.3726	15.0205	0.6381	5.8602	44.9907
-98.6474	0.4742	33.3715	0.7214	5.8946	44.9405
-98.5081	0.271	30.892	-5.2225	5.9591	44.7667
-98.5429	0.3218	-15.1153	71.4398	5.8386	44.6238
-98.6204	0.2754	27.7685	19.1706	5.688	44.6044
-98.8488	0.2103	59.9783	-27.8077	5.5933	44.2646
-98.9302	0.0899	95.7678	-29.1784	5.2878	44.1525
-99.0773	0.1451	54.7821	-20.2289	5.3694	43.6351
-99.1586	0.0248	-1.7978	52.016	5.1972	43.2488
-99.0463	0.0203	18.5461	32.6217	5.2488	42.855
-98.5507	0.1738	9.3484	17.2762	5.9629	42.2914
-97.8383	0.1705	101.4458	-37.4598	6.3544	41.9594
-97.4976	0.2312	50.5432	-24.3237	6.8061	41.3803
-97.455	0.3284	51.8251	20.3331	6.9953	40.7857
-97.3775	0.3748	24.5946	3.9623	6.879	40.079
-97.1608	0.2179	45.9187	3.7724	6.9133	39.3916
-97.1298	0.0931	114.3784	-21.5069	6.7755	38.9552
-97.1337	0.0192	72.9461	38.9224	6.9647	38.3605
-97.2073	0.0468	101.4458	-37.4598	6.9776	37.9435
-97.2886	-0.0736	18.5461	32.6217	6.8054	37.5573
-97.4861	-0.2636	82.3831	-24.236	6.5858	37.0011
-97.6758	-0.3055	82.3831	-24.236	6.4094	36.5415
-97.7959	-0.4491	50.5432	-24.3237	6.1038	36.4294
-97.912	-0.5187	37.9351	15.4165	5.751	36.1474
-98.1057	-0.6346	49.1041	-11.9475	5.3938	35.792
-98.2567	-0.6534	35.7521	7.5264	4.8301	35.7378
-98.1057	-0.6346	65.2098	15.3907	4.6064	35.7454
-97.6527	-0.5783	64.9486	-23.983	4.9334	35.5872
-97.1261	-0.5496	37.9351	15.4165	5.2216	35.4058
-96.6344	-0.4701	61.0475	6.8821	5.4196	35.5951
-96.4446	-0.4282	70.3149	-19.7797	5.2862	35.8692
-96.5182	-0.4006	-6.315	31.7562	5.1787	35.9464
-96.4873	-0.5254	59.2706	-15.7015	4.7829	36.205
-96.2975	-0.4834	36.5701	-13.504	4.8646	36.3248
-96.1465	-0.4646	70.3149	-19.7797	4.5162	36.7533
-95.9259	-0.5475	9.5565	25.8956	4.1334	37.232
-95.8871	-0.5243	52.9732	-6.5167	3.5956	37.618
-95.8136	-0.5519	20.6985	-7.6433	2.9976	38.2511
-95.8523	-0.5751	37.9351	15.4165	2.4514	39.1275
-95.7904	-0.8247	33.3715	0.7214	1.4662	40.166
-95.2485	-1.2168	17.804	44.778	0.0294	41.7836
-93.2936	-2.5543	-7.8577	42.3715	-2.4355	44.3431
-91.3657	-3.693	1.409	12.5238	-4.7066	48.2928
-89.9295	-4.1945	-22.8516	47.9081	-5.9323	51.5941
-88.5899	-4.3956	7.7064	3.3389	-5.6559	56.9272
-87.169	-4.4762	16.4888	-16.959	-0.2334	62.7215
-85.5119	-4.3438	-5.4662	15.0625	23.0961	64.8646
-84.1489	-4.1009	-32.9104	6.4922	47.0003	56.4501
-83.7154	-4.4145	13.1265	-49.9774	55.5568	48.1928
-83.3244	-4.8254	-9.7576	-16.6007	65.7019	44.7091
-82.1396	-4.4025	1.1511	-32.5111	71.4623	39.7332
-80.7921	-3.7388	-1.2822	-44.6569	71.7151	33.8675
-79.4638	-2.7283	-3.094	-46.8741	70.7162	30.2256
-77.3882	-1.0552	3.914	-52.2356	68.8354	27.4716
-75.7307	0.5108	-9.0319	-47.4553	67.6173	25.1851
-74.3211	1.6417	-18.2508	-38.3911	68.5596	25.3244
-72.9503	2.7493	-48.6907	-6.4225	69.2179	25.0813
-73.0587	2.8278	-19.9061	-31.5951	69.7342	24.9656
-73.4807	2.6467	-22.0345	-23.9497	69.8073	24.9386
-73.9028	2.4655	13.3492	-55.7196	70.3366	25.0431
-73.9493	2.2944	-13.2576	-27.1906	71.0465	25.0433
-74.4101	2.0901	-18.2508	-38.3911	71.6059	25.0242
-74.8864	1.5898	-7.7817	-57.9625	71.352	25.1554
-75.5679	1.4683	-7.4093	-45.2806	71.4423	24.7847
-76.5669	1.0134	-18.2508	-38.3911	71.5671	25.001
-77.6124	0.3872	-52.8464	-25.6164	71.0293	24.7498
-78.7585	-0.0125	2.4749	-39.8595	70.5904	24.9119
-79.7188	-0.4443	-2.3523	-38.0769	70.7625	24.6609
-80.9502	-1.0385	6.3573	-55.7992	71.4596	25.0782
-82.5261	-1.7673	-1.733	-62.4825	71.8985	25.5533
-83.7614	-2.4354	-24.9878	-32.8672	72.0147	25.6229
-85.407	-3.0627	-22.9688	-27.1281	72.1912	26.0825
-87.0991	-3.8611	8.5219	-53.9371	72.9357	26.6697
-88.2957	-4.506	-27.8784	-28.6512	73.0778	27.1795
-89.3992	-4.8086	-27.011	-38.0425	73.4866	27.7782
-90.1929	-4.9256	-58.4365	15.9179	72.9402	28.0174
-91.095	-4.9642	-13.6799	-53.4231	73.982	30.4815
-92.7753	-4.8239	-4.0696	-40.5915	82.3052	40.4898
-94.7343	-4.2771	-24.9878	-32.8672	92.0372	59.8361
-96.4996	-3.6144	2.3502	-16.5736	81.6627	79.1102
-98.416	-2.9704	-13.1332	-6.0209	47.1685	81.5395
-100.1348	-2.1365	18.5479	-27.0527	25.7822	71.1446
-101.5865	-1.2143	9.9792	-14.5553	21.0852	56.0864
-102.6007	-0.5317	-7.7208	-8.0194	20.369	45.818
-103.1891	-0.3108	59.7656	-37.7747	19.3958	41.342
-103.4485	-0.2512	38.3578	-25.0343	17.5495	39.175
-103.4098	-0.228	41.7663	-21.0827	15.0666	37.6179
-103.3711	-0.2048	49.1041	-11.9475	13.0958	37.1461
-103.1775	-0.0888	18.5461	32.6217	11.1726	37.4815
-102.6819	0.0647	64.0174	-10.5949	10.949	38.1263
-101.9656	0.1353	18.3334	22.6546	11.0437	38.4661
-101.3616	0.2104	70.3149	-19.7797	11.1168	38.4391
-100.8737	0.2159	17.804	44.778	11.0567	38.6863
-100.5021	0.1518	0.334	39.3466	10.6652	39.0182
-100.684	0.2579	98.0406	-47.0727	10.6394	39.2152
-100.6531	0.1331	89.4704	-19.9936	10.3511	39.3966
-100.5834	0.0314	214.4806	-90.069	10.0887	39.381
-100.3976	-0.0006	35.7521	7.5264	9.5767	39.5701
-100.4363	-0.0238	65.2098	15.3907	9.1164	40.0025
-100.5525	-0.0934	98.0406	-47.0727	8.9443	40.2534
-100.4441	-0.1718	64.0174	-10.5949	8.6991	40.5314
-100.5176	-0.1442	-1.7978	52.016	8.3464	40.8865
-100.7461	-0.2093	153.01	-56.5003	8.2087	41.0873
-100.8622	-0.2789	153.01	-56.5003	7.985	41.0949
-100.9397	-0.3253	35.7521	7.5264	7.7182	41.006
-100.5641	-0.3153	89.4704	-19.9936	7.8387	41.149
-100.1498	-0.2822	52.9732	-6.5167	8.0969	41.0911
-99.8052	-0.1475	59.2706	-15.7015	8.1657	40.9907
-99.6581	-0.2027	101.4458	-37.4598	7.8301	41.0022
-99.6929	-0.1519	69.0312	-4.7621	7.6364	40.8863
-99.7704	-0.1983	39.7569	24.7894	7.4858	40.8669
-99.8866	-0.2679	49.1041	-11.9475	7.0384	40.8822
-99.9601	-0.2403	9.1109	36.1057	6.4833	40.9747
-99.9988	-0.2635	74.4323	1.9397	6.1994	41.2295
-99.9331	-0.4391	30.892	-5.2225	5.7994	42.0519
-99.9331	-0.4391	28.8482	40.6998	5.352	42.7044
-99.9331	-0.4391	138.6046	-56.841	4.9305	43.1599
-100.0531	-0.5826	93.2573	-40.0962	4.5648	43.295
-100.208	-0.6754	95.7678	-29.1784	4.1259	43.457
-100.2467	-0.6986	106.3948	-9.8627	3.8333	43.565
-100.4791	-0.8377	42.797	-31.5089	3.8247	43.4183
-100.5178	-0.8609	35.7521	7.5264	3.6741	43.3989
-100.0261	-0.7814	56.9629	-0.3058	3.9926	43.7312
-99.3098	-0.7108	54.3012	31.3011	5.1242	43.913
-98.8607	-0.7285	8.7231	9.823	5.7998	43.9634
-98.7058	-0.6357	-7.8577	42.3715	5.8084	44.1102
-98.5277	-0.8157	89.4704	-19.9936	6.3161	43.8478
-98.4503	-0.7693	31.5139	99.3517	6.3333	44.1413
-98.5199	-0.6677	27.7685	19.1706	6.5915	44.0834
-98.4851	-0.7185	101.4458	-37.4598	6.6732	44.2032
-98.3728	-0.723	-10.5746	55.257	6.6819	44.3499
-98.3767	-0.797	54.7821	-20.2289	6.6518	44.4735
-98.489	-0.7925	70.1449	-31.5617	6.5356	44.4039
-98.6478	-0.9593	89.4704	-19.9936	6.3764	44.2378
-98.7291	-1.0797	30.892	-5.2225	6.2559	44.0949
-99.0272	-1.0432	76.0857	-15.0511	5.8428	44.06
-99.2596	-1.1824	1.3647	28.9204	5.6147	43.9943
-99.3757	-1.2519	59.2706	-15.7015	5.718	43.8437
-99.4919	-1.3215	81.1891	-35.6399	5.348	43.9054
-99.5267	-1.2707	59.2706	-15.7015	5.4899	43.778
-99.1512	-1.2608	82.3831	-24.236	6.1956	43.7048
-98.4039	-1.3149	9.5565	25.8956	6.7119	43.5892
-97.9858	-1.2078	56.9629	-0.3058	7.3744	43.4195
-97.7999	-1.2399	1.6686	20.112	7.2024	43.6704
-97.9471	-1.1846	33.3715	0.7214	7.1894	43.4503
-97.9161	-1.3094	33.3715	0.7214	7.2669	43.4967
-97.92	-1.3834	101.4458	-37.4598	7.34	43.4697
-98.071	-1.4022	39.6689	-8.4635	7.2282	43.4735
-98.0827	-1.6242	26.317	11.0104	7.2496	43.2032
-98.2298	-1.5689	89.4261	-3.5969	7.0473	42.9405
-98.4931	-1.5833	-1.7978	52.016	6.63	42.8322
-98.799	-1.6948	97.1723	3.5883	6.3502	42.5232
-99.0274	-1.76	45.9187	3.7724	5.864	42.5153
-99.2559	-1.8251	18.3334	22.6546	5.7779	42.3222
-99.4107	-1.9179	39.6689	-8.4635	5.4767	42.2835
-99.6779	-2.0062	89.4704	-19.9936	5.1669	42.098
-99.9412	-2.0206	10.3928	80.7625	4.8958	41.9358
-99.9025	-1.9974	64.0174	-10.5949	4.8915	41.8624
-99.4534	-2.0151	88.0611	-32.5174	5.4896	41.8665
-98.8881	-1.9632	93.2573	-40.0962	6.0876	41.8705
-98.5396	-1.7545	74.4323	1.9397	6.4706	42.029
-98.3498	-1.7125	75.9929	-28.0611	6.7718	42.0677
-98.3886	-1.7357	65.2098	15.3907	6.4491	42.2993
-98.466	-1.7821	61.0475	6.8821	6.4018	42.1293
-98.5822	-1.8517	94.5411	-55.1138	6.2339	41.8165
-98.6906	-1.7732	35.7521	7.5264	6.1134	41.6736
-98.6557	-1.824	17.5401	14.2514	5.9241	41.631
-98.6906	-1.7732	50.9888	-34.5338	5.4595	41.99
-98.6518	-1.7501	24.5946	3.9623	5.1152	41.8547
-98.8416	-1.792	4.4864	64.2017	4.3278	41.8081
-99.1475	-1.9035	28.7126	28.8676	3.648	41.6844
-99.3642	-1.7467	86.2636	19.4987	3.093	41.7769
-99.3294	-1.7975	76.0857	-15.0511	2.7186	41.7651
-99.705	-1.8074	-65.3244	135.11	2.4518	41.6762
-99.9256	-1.7246	42.8066	-2.7626	1.7032	41.6528
-99.3991	-1.6959	70.3149	-19.7797	1.8235	41.1586
-98.8299	-1.57	69.2008	-41.2587	2.2925	40.873
-98.3421	-1.5645	75.9929	-28.0611	2.6367	41.0082
-98.1833	-1.3978	56.9629	-0.3058	2.8563	41.5644
-97.9161	-1.3094	27.7685	19.1706	2.9639	42.1244
-97.8077	-1.3878	70.3149	-19.7797	2.7274	42.5491
-97.9587	-1.4066	141.0346	-39.034	2.5466	42.0161
-97.8116	-1.4618	61.0475	6.8821	2.2366	41.1935
-97.8077	-1.3878	56.9629	-0.3058	2.1548	41.0737
-97.8426	-1.337	7.6374	48.532	1.6644	41.6296
-97.8116	-1.4618	121.4329	-31.7959	1.2128	42.2087
-95.9842	-1.6574	56.9629	-0.3058	0.7611	42.7878
-91.6906	-2.0242	82.3831	-24.236	-0.1294	43.529
-87.877	-2.2486	37.9351	15.4165	-1.5405	44.9496
-85.7205	-2.6054	15.5307	60.1235	-2.5773	45.7448
-85.4418	-3.0119	54.3012	31.3011	-2.93	46.1
-86.1001	-3.4061	15.0205	0.6381	-3.2181	46.9185
-86.9365	-3.6203	72.9461	38.9224	-3.9579	48.3162
-87.5831	-3.7926	36.5701	-13.504	-3.9148	49.0499
-88.0013	-3.8997	28.7126	28.8676	-3.2565	48.8069
-88.493	-3.9792	121.6359	-50.5752	-2.6328	47.9768
-89.2519	-4.147	97.4098	-15.2411	-2.5255	46.6253
-89.5578	-4.2586	9.5565	25.8956	-2.5171	45.4977
-89.9721	-4.2917	-6.315	31.7562	-2.4096	44.7833
-90.8393	-4.3811	30.892	-5.2225	-2.2377	43.8952
-91.8925	-4.4385	39.6689	-8.4635	-2.6121	43.2463
-92.7171	-4.4307	11.7055	-9.9825	-3.0295	43.138
-93.6658	-4.6405	22.402	-32.6741	-2.1774	44.2852
-95.319	-4.699	4.702	-26.1382	-1.7644	43.6829
-96.9452	-4.9562	-18.7998	-28.6676	-2.2983	41.5936
-98.0604	-5.4808	-52.1519	-16.352	-4.0152	40.9906
-98.2425	-6.0915	-59.2064	-28.9279	-3.0512	42.134
-97.5069	-6.3677	-61.4334	-42.6492	-1.2825	43.6174
-96.9068	-6.3666	-76.2739	-45.3032	1.6478	44.522
-95.9969	-6.18	-87.5828	-53.3469	1.6563	44.0316
-95.1257	-6.0166	-106.0984	-59.4042	1.6385	41.1894
-94.1423	-5.8576	-116.0173	-65.4123	3.4758	41.2981
-93.8481	-5.968	-129.8312	-77.9287	3.6265	41.9547
-92.5626	-5.7715	-149.8361	-87.0719	4.3409	42.6654
-90.2007	-5.0736	-184.3358	-113.9527	5.1975	44.5232
-88.8571	-4.4839	-200.7311	-125.2535	3.7907	45.38
-86.8822	-3.3012	-210.5726	-131.8525	3.6704	46.5115
-86.9596	-3.3475	-220.2498	-134.3889	2.0313	47.8664
-87.8386	-3.6589	-217.5603	-132.4958	-1.1266	49.4448
-89.4146	-4.3878	-210.0808	-124.7623	-3.9142	52.2358
-92.6477	-5.2491	-197.0755	-111.385	-6.3318	54.9652
-97.174	-6.4549	-174.0443	-93.9884	-9.9497	58.2503
-101.7468	-7.8319	-154.8991	-80.4045	-11.1412	60.2271
-105.4522	-8.4028	-126.1107	-61.6853	-7.535	63.0937
-107.2216	-8.5308	-97.0422	-41.3826	-2.7412	66.4587
-107.5933	-8.4667	-79.7455	-18.57	-2.3754	66.9609
-107.3376	-7.8836	-64.8218	-8.1501	-3.9116	66.2537
-106.5863	-7.147	-45.2644	1.0084	-5.6845	65.334
-105.5988	-6.1972	-33.9838	18.7333	-7.1088	64.623
-104.9249	-5.507	23.364	-19.4977	-7.01	63.7619
-104.4408	-4.8587	20.9279	-23.4336	-7.3329	62.7191
-103.7786	-4.3905	46.9265	-37.5318	-7.957	61.6377
-102.981	-4.1995	-5.4662	15.0625	-8.34	60.842
-103.039	-3.8759	7.7064	3.3389	-8.3014	60.2281
-102.9886	-3.6307	22.7003	-2.1977	-8.6631	59.1621
-103.0505	-3.3811	30.6781	-22.1985	-9.5495	58.7023
-103.0815	-3.2563	28.3783	-10.4791	-9.9067	58.3469
-103.155	-3.2287	-24.0439	21.9225	-10.4919	57.9258
-103.4066	-3.021	13.3845	-4.9425	-11.0127	57.3309
-103.3601	-2.8499	-27.0139	39.3994	-11.2623	56.8983
-102.7174	-2.7516	-5.6783	8.2813	-11.3441	56.7786
-101.8888	-2.6854	20.6985	-7.6433	-10.6084	56.5819
-101.277	-2.4623	13.3845	-4.9425	-10.0103	56.5859
-100.855	-2.2812	5.1959	-7.5788	-9.3951	56.2463
-100.8472	-2.1332	23.364	-19.4977	-9.365	56.1227
-100.8124	-2.184	9.9792	-14.5553	-9.4941	55.8331
-101.033	-2.1012	16.4888	-16.959	-9.7523	55.8909
-100.9595	-2.1288	5.1959	-7.5788	-9.6576	55.5936
-101.2111	-1.9211	-11.9757	17.4662	-9.6706	55.3735
-101.3311	-2.0647	7.7064	3.3389	-9.6147	55.053
-101.5131	-1.9587	25.0574	-29.4564	-9.8815	54.9641
-101.8112	-1.9222	-15.5375	45.2073	-10.187	54.852
-102.2177	-1.8073	-6.8723	-3.1226	-10.3893	54.5893
-102.5197	-1.8449	-28.7908	16.8158	-10.6303	54.3035
-102.7752	-1.7112	-11.9757	17.4662	-11.0089	54.2184
-102.659	-1.6417	13.3845	-4.9425	-10.6863	53.9868
-102.2757	-1.4837	-12.0685	4.4562	-10.0108	54.0372
-101.7801	-1.3302	-27.0139	39.3994	-9.1588	53.9101
-101.3619	-1.2231	-6.1441	2.2686	-8.6339	53.9411
-101.3541	-1.0751	3.8354	-12.2867	-8.4274	53.64
-101.54	-1.0431	-13.1332	-6.0209	-8.7674	53.5781
-101.6135	-1.0155	9.9792	-14.5553	-8.8922	53.3618
-101.5709	-0.9183	38.3578	-25.0343	-8.8707	53.0915
-101.6445	-0.8907	-0.0003	-0.0001	-8.8019	52.9911
-101.7141	-0.7891	-12.5207	25.3516	-8.7761	52.7942
-101.7877	-0.7615	45.3469	-16.7449	-9.0085	52.6551
-102.1168	-0.6002	6.5092	-2.4038	-9.2365	52.5894
-102.4536	-0.5869	-4.5646	-18.5183	-9.5076	52.4271
-102.6085	-0.6797	50.7806	-43.1531	-9.7443	52.2146
-102.8679	-0.6201	27.8032	-25.9723	-9.9767	52.0755
-102.8949	-0.4213	-23.6879	-6.9589	-9.9079	51.9751
-102.4419	-0.365	2.3502	-16.5736	-9.2711	52.0024
-101.7953	-0.1927	27.8032	-25.9723	-8.2599	52.0413
-101.4507	-0.058	14.4184	-21.0299	-7.3951	52.1343
-101.4081	0.0392	-18.1196	19.7348	-7.2144	52.0301
-101.7023	0.1497	6.5092	-2.4038	-7.4123	51.8408
-101.7062	0.0757	20.9279	-23.4336	-7.3952	51.4971
-101.7371	0.2005	9.9792	-14.5553	-7.6878	51.6051
-101.772	0.2513	25.8948	-15.222	-7.3651	51.3735
-101.8068	0.3021	13.3845	-4.9425	-7.2619	51.223
-101.8765	0.4037	-5.4662	15.0625	-7.0424	51.1419
-101.95	0.4313	11.7055	-9.9825	-7.2275	51.1728
-102.283	0.5186	0.8312	5.8776	-7.533	51.0607
-102.5501	0.4302	6.5092	-2.4038	-7.8471	50.8019
-102.6973	0.4855	16.4888	-16.959	-7.7525	50.5045
-102.4649	0.6246	-6.1441	2.2686	-7.8601	50.5817
-101.8957	0.7505	20.9279	-23.4336	-6.7844	50.4469
-101.3305	0.8024	23.364	-19.4977	-5.8808	50.5631
-101.0246	0.9139	-6.8723	-3.1226	-5.1408	50.4397
-101.2026	1.0939	22.402	-32.6741	-5.1838	50.3432
-101.2452	0.9967	-17.7003	6.5358	-5.3818	50.1539
-101.3885	1.126	-6.8723	-3.1226	-5.4205	50.1307
-101.311	1.1723	6.5092	-2.4038	-5.2485	49.8798
-101.4581	1.2276	11.7055	-9.9825	-5.2485	49.8798
-101.6052	1.2828	-7.7208	-8.0194	-5.2227	49.6828
-101.7175	1.2872	6.4797	-22.5965	-5.1969	49.4859
-101.8646	1.3424	22.402	-32.6741	-5.1969	49.4859
-102.124	1.4021	-24.0439	21.9225	-5.468	49.3236
-102.3137	1.3601	20.9279	-23.4336	-5.7391	49.1613
-102.0853	1.4253	18.5479	-27.0527	-5.6359	49.0108
-101.4426	1.5235	39.2467	-34.6959	-4.6634	49.0265
-100.8308	1.7466	28.3783	-10.4791	-3.5491	48.9149
-100.5249	1.8581	0.8312	5.8776	-2.809	48.7916
-100.2616	1.8725	6.5092	-2.4038	-2.4821	48.6334
-100.37	1.9509	18.5807	-12.5213	-2.3229	48.1623
-100.5519	2.0569	-0.0003	-0.0001	-2.3015	47.892
-100.5132	2.0801	46.5496	-28.0592	-1.8842	47.3631
-100.4358	2.1265	2.3502	-16.5736	-1.7035	47.2589
-100.5442	2.2049	-5.6455	22.8128	-1.2389	46.8999
-100.6216	2.1586	18.5807	-12.5213	-1.3637	46.6836
-100.73	2.237	35.7868	-37.6165	-1.3423	46.4133
-100.9158	2.269	55.3265	-31.3001	-1.3939	46.17
-101.1404	2.2778	-19.0302	27.7552	-1.2865	45.4556
-101.0668	2.2502	25.0574	-29.4564	-1.2909	44.745
-100.6448	2.4313	-6.315	31.7562	-0.4993	44.2278
-99.8201	2.4236	11.7055	-9.9825	0.9463	44.0314
-99.4368	2.5815	-6.8723	-3.1226	1.9359	43.7034
-99.3941	2.6787	23.364	-19.4977	2.3618	43.3213
-99.4599	2.8543	13.3845	-4.9425	2.1251	43.1088
-99.6109	2.8355	11.7055	-9.9825	1.7034	42.9272
-99.6845	2.8631	-24.0439	21.9225	1.5312	42.541
-99.6806	2.9371	17.5401	14.2514	1.6817	41.9231
-99.7154	2.9879	-6.8723	-3.1226	1.2427	41.448
-99.8277	2.9923	-13.1332	-6.0209	1.2813	40.834
-100.0561	2.9272	25.8948	-15.222	0.98	40.1581
-100.2768	3.01	5.1959	-7.5788	0.4894	39.4397
-100.4626	3.0421	18.5479	-27.0527	0.0031	38.7946
-100.6136	3.0233	20.6985	-7.6433	-0.2939	38.1921
-100.6446	3.1481	30.6781	-22.1985	-0.2768	37.8484
-99.7773	3.2375	32.5248	-40.3478	0.3083	37.6324
-99.0145	3.4794	67.7493	-49.4189	1.0097	37.4859
-98.488	3.5081	35.1172	-28.6731	1.4872	37.347
-98.3331	3.6008	8.7231	9.823	1.4355	37.1037
-98.213	3.7444	50.5432	-24.3237	1.2032	36.9646
-98.1743	3.7676	38.3578	-25.0343	1.0182	36.9954
-97.9497	3.7587	25.8948	-15.222	0.9924	37.1924
-97.8993	4.0039	20.9279	-23.4336	1.1129	37.3353
-97.6787	3.9211	-5.6783	8.2813	1.3625	37.7679
-97.7135	3.9719	25.0574	-29.4564	1.9607	38.4091
-97.8684	3.8791	9.9792	-14.5553	2.2835	38.8147
-97.8065	3.6295	7.7064	3.3389	2.2062	39.4055
-98.0311	3.6384	22.402	-32.6741	2.1116	39.7028
-98.2634	3.4992	16.4888	-16.959	2.06	40.0967
-98.457	3.3833	25.0574	-29.4564	1.6599	40.2819
-98.1163	3.444	18.5807	-12.5213	1.7373	40.3283
-97.3613	3.5378	9.9792	-14.5553	2.2235	40.3362
-96.8734	3.5433	-29.6758	24.0021	1.9568	40.2473
-96.7534	3.6869	4.3858	-37.229	-1.1456	39.5936
-96.9896	3.4738	-33.2793	12.2884	-7.0018	38.495
-98.097	3.0972	-24.9878	-32.8672	-12.0012	39.8913
-99.398	2.6047	-28.0484	-40.4333	-10.1978	43.2361
-100.4667	2.2513	-63.8403	-51.806	-11.3082	41.5095
-100.4552	1.7565	-89.0626	-51.1887	-7.5262	41.0126
-99.3132	1.3655	-102.7158	-55.2556	-1.8853	41.6285
-98.4034	0.8354	-103.9049	-64.0375	1.6732	42.4136
-97.8924	0.5681	-119.1291	-70.6729	3.7215	43.5689
-97.0677	0.5603	-132.4512	-76.0991	6.0236	44.593
-95.7902	-0.1079	-151.4808	-92.7993	6.5917	45.3578
-94.6287	-0.1289	-185.1958	-111.4236	7.8014	48.7719
-92.7741	0.1935	-207.8826	-127.4107	9.1616	51.5682
-91.5313	0.2928	-221.6488	-137.8455	7.5482	52.089
-91.0203	0.0255	-233.5471	-145.1094	5.6677	51.2465
-90.9274	-0.3489	-240.5482	-148.5215	3.6281	50.2379
-91.2682	-0.4096	-243.7278	-147.9472	0.2331	49.6923
-92.9757	-0.7872	-238.7667	-147.4551	-3.0756	49.977
-95.2911	-1.314	-226.2181	-136.758	-5.5323	50.7717
-97.5909	-1.5447	-212.3359	-127.528	-4.3142	53.0582
-99.554	-1.7887	-184.4894	-107.0365	-3.2081	54.7114
-101.2111	-1.9211	-163.4027	-88.3971	-2.9113	54.0396
-103.2516	-2.2115	-138.5302	-72.0927	-0.579	55.5773
-104.2233	-2.1485	-113.7379	-48.2619	5.3159	56.6991
-105.1177	-2.0391	-77.1922	-32.3321	8.289	56.4259
-105.7836	-1.8646	-55.772	-24.5361	7.1657	54.4792
-105.6596	-1.647	-6.9602	-36.3755	5.9822	53.4169
-105.0401	-1.276	-29.089	-13.6606	5.552	53.7257
-104.1107	-0.7194	-23.2998	-2.2668	5.8662	53.9845
-103.0226	0.0039	22.7003	-2.1977	7.0666	54.066
-101.1872	0.6731	39.6689	-8.4635	8.8351	54.2751
-99.9172	1.2905	-5.6455	22.8128	10.4356	54.1714
-99.1853	1.6571	33.5745	-18.0579	11.2617	53.604
-98.8368	1.8658	36.5701	-13.504	11.2659	53.0402
-98.7864	2.111	93.2573	-40.0962	11.0937	52.6539
-98.736	2.3562	35.7521	7.5264	11.0635	52.1403
-98.5772	2.5229	41.7663	-21.0827	10.9515	51.507
-98.674	2.8233	41.7663	-21.0827	10.8825	50.9702
-98.6584	3.1193	7.7064	3.3389	10.7017	50.4372
-98.6119	3.2905	0.8312	5.8776	10.8522	49.8194
-98.6351	3.5633	7.7064	3.3389	10.8564	49.2556
-98.5576	3.6097	-78.3781	185.0603	10.4605	48.877
-98.697	3.8129	-5.4662	15.0625	10.5852	48.4561
-98.7627	3.9885	33.5745	-18.0579	10.555	47.9425
-98.4181	4.1232	8.7231	9.823	10.9421	47.5372
-97.4773	4.185	41.7663	-21.0827	12.3017	47.1476
-96.788	4.4545	8.7231	9.823	13.8893	46.8237
-96.4473	4.5152	15.0205	0.6381	14.8703	46.3491
-96.3699	4.5616	1.409	12.5238	15.0638	45.8278
-96.3312	4.5848	-5.4662	15.0625	15.2659	45.4533
-96.2498	4.7051	74.9282	-38.5382	15.1411	45.237
-96.2072	4.8023	-12.5041	-1.043	15.6789	44.851
-96.0988	4.7239	18.5807	-12.5213	15.7391	44.6039
-96.1298	4.8487	31.9326	-31.9952	16.1693	44.2951
-96.0214	4.7703	7.7064	3.3389	16.337	43.9708
-96.1724	4.7515	8.7231	9.823	16.109	43.905
-96.4279	4.8852	33.5745	-18.0579	16.1132	43.3412
-96.4279	4.8852	7.7064	3.3389	15.8421	43.179
-96.4666	4.862	-5.4662	15.0625	15.7818	42.7889
-96.6563	4.82	16.4029	6.9872	15.5537	42.7232
-96.8383	4.9261	-6.315	31.7562	15.5365	42.4297
-96.3117	4.9547	46.5496	-28.0592	15.8677	42.3448
-95.4444	5.0442	13.3845	-4.9425	16.9821	42.2332
-94.8752	5.17	-12.0685	4.4562	17.9502	42.1756
-94.461	5.2032	8.7231	9.823	18.8365	41.9983
-94.3448	5.2727	8.7231	9.823	19.4173	41.7088
-94.31	5.2219	50.5432	-24.3237	19.4345	41.3651
-94.4222	5.2263	1.409	12.5238	19.2882	41.4192
-94.3487	5.1987	1.409	12.5238	19.6066	41.1142
-94.31	5.2219	23.364	-19.4977	19.4215	41.145
-94.3874	5.1755	35.7521	7.5264	19.6624	40.7937
-94.4687	5.0552	46.5496	-28.0592	19.572	40.5272
-94.6507	5.1612	46.5496	-28.0592	19.4859	40.3341
-94.6933	5.064	-0.0003	-0.0001	19.4042	40.2144
-94.8791	5.096	1.3647	28.9204	19.3138	39.9479
-94.9605	4.9757	37.9351	15.4165	19.047	39.859
-94.9992	4.9525	55.3265	-31.3001	19.1115	39.6852
-95.185	4.9845	31.9326	-31.9952	18.8016	39.4997
-95.3747	4.9426	18.5807	-12.5213	18.6381	39.2603
-95.2625	4.9381	30.6781	-22.1985	18.8188	39.1561
-94.5036	5.106	27.7685	19.1706	19.6019	39.1293
-93.7486	5.1998	9.3484	17.2762	20.8324	39.0872
-93.3769	5.1357	1.409	12.5238	21.6069	38.9137
-93.1523	5.1269	12.4041	-24.7841	21.8607	38.7825
-93.1136	5.1501	50.5432	-24.3237	21.8134	38.6125
-93.1523	5.1269	9.9792	-14.5553	21.6541	38.4464
-93.1523	5.1269	2.3502	-16.5736	21.5637	38.18
-93.0052	5.0717	8.7231	9.823	22.024	37.7476
-93.0013	5.1457	18.5807	-12.5213	21.7616	37.7321
-93.2995	5.1821	38.3578	-25.0343	21.598	37.4926
-93.3808	5.0617	6.5092	-2.4038	21.499	37.0794
-93.4195	5.0386	28.3783	-10.4791	21.2924	36.7433
-93.5705	5.0198	54.7821	-20.2289	21.1245	36.4305
-93.7602	4.9778	69.2008	-41.2587	20.9653	36.2644
-93.799	4.9546	-5.4662	15.0625	20.6942	36.1021
-93.9538	4.8619	33.5745	-18.0579	20.2855	36.1406
-94.1049	4.8431	0.8312	5.8776	20.1176	35.8277
-93.8028	4.8806	50.5432	-24.3237	20.4102	35.7197
-93.0517	4.9005	64.9486	-23.983	21.5288	35.6814
-92.3354	4.9711	33.5745	-18.0579	22.6863	35.6664
-92.0334	5.0087	36.5701	-13.504	23.0219	35.6549
-91.9212	5.0043	22.7003	-2.1977	23.2026	35.5507
-91.9212	5.0043	67.7493	-49.4189	22.9358	35.4618
-92.0334	5.0087	33.5745	-18.0579	23.1423	35.1606
-92.0334	5.0087	20.9279	-23.4336	23.31	34.8363
-91.9251	4.9303	41.7663	-21.0827	23.0131	34.871
-91.9289	4.8563	9.5565	25.8956	23.2927	34.5428
-91.9716	4.7591	16.4888	-16.959	23.0948	34.3535
-92.3045	4.8463	1.6686	20.112	22.7763	34.0213
-92.3858	4.726	31.9326	-31.9952	22.1781	33.3801
-92.5407	4.6332	30.892	-5.2225	21.8682	32.5575
-92.7382	4.4432	46.5496	-28.0592	21.2914	31.6459
-92.9667	4.3781	23.364	-19.4977	20.7277	30.9545
-93.1564	4.3361	57.8351	-53.4421	20.0951	30.3635
-93.4197	4.3218	35.9661	-45.3668	19.4324	29.896
-93.6907	4.1595	55.3265	-31.3001	18.718	29.1852
-93.5785	4.155	27.8032	-25.9723	18.2704	28.5633
-92.8622	4.2257	46.9265	-37.5318	18.3779	28.4861
-91.9601	4.2643	-11.9757	17.4662	19.4278	28.5483
-91.5071	4.3206	39.2467	-34.6959	20.2669	28.8382
-91.2825	4.3118	20.6985	-7.6433	20.7316	29.1163
-91.3561	4.3394	26.317	11.0104	21.0157	29.4987
-91.3948	4.3162	33.5745	-18.0579	21.2997	29.8811
-91.5071	4.3206	0.8478	-20.5169	22.3025	31.0477
-91.5497	4.2234	35.1172	-28.6731	22.6987	33.3378
-91.7742	4.2323	-0.0003	-0.0001	21.4342	35.9788
-92.0801	4.1207	11.7565	-36.4272	16.5167	38.132
-92.7771	3.7033	-33.258	-12.1212	14.2325	41.2244
-93.9001	3.0308	-30.9411	-24.1843	15.3088	44.2755
-94.9108	2.3538	-52.5619	-22.6853	19.7708	45.1767
-96.0571	1.2373	-52.1519	-39.217	30.1448	46.2189
-96.6651	0.3714	-74.2259	-46.0594	36.5175	48.4762
-96.2625	0.1826	-88.6983	-58.9698	34.8391	46.6221
-95.798	-0.2559	-114.1592	-69.397	35.0758	46.8345
-95.771	-0.4547	-122.0652	-79.9342	36.018	46.3367
-95.3993	-0.5188	-138.865	-91.1231	37.0505	45.4681
-95.0315	-0.6568	-148.6723	-99.0466	38.0874	45.3102
-94.23	-0.3918	-160.7464	-102.947	39.0641	45.3993
-93.7073	-0.4371	-169.2619	-105.4251	40.7726	47.1299
-93.7073	-0.4371	-176.2976	-110.0614	42.085	47.8447
-93.6686	-0.4139	-180.9065	-114.0945	42.8383	49.2159
-94.1991	-0.5166	-181.8578	-116.2921	43.3935	50.3977
-94.8109	-0.7397	-180.9586	-116.2493	42.7914	51.5946
-95.5001	-1.0091	-179.4177	-113.5572	42.1161	52.8186
-96.2203	-1.1538	-175.2262	-109.6324	41.927	54.0504
-96.8708	-1.4	-168.1565	-107.595	41.9229	55.2514
-97.3277	-1.5303	-163.3233	-101.0208	42.6976	56.3522
-97.7458	-1.6374	-152.6387	-95.333	42.9948	58.2291
-98.648	-1.6761	-144.7281	-83.448	42.5263	60.4262
-100.2664	-1.7853	-124.1994	-80.0083	41.4078	61.7388
-102.3494	-2.1729	-107.7467	-61.3819	41.3733	61.1518
-104.2233	-2.1485	-88.4765	-46.3073	42.5432	58.8082
-105.1564	-2.0623	-64.6739	-45.6508	42.5214	57.1669
-105.3498	-1.4615	-52.8464	-25.6164	41.3034	55.5176
-104.6334	-0.6741	-12.8465	-37.3505	40.1542	53.7679
-103.6575	0.0537	-23.6879	-6.9589	39.8098	52.3583
-102.2248	0.9117	-19.5584	-12.9817	40.3948	51.505
-100.5404	1.5622	-2.089	-10.099	40.8378	50.7792
-99.2743	2.1055	-17.9165	0.9556	41.4186	50.4897
-98.2095	2.3849	-18.1196	19.7348	41.9908	50.0536
-97.7526	2.5152	-28.0831	4.7097	41.8316	49.8875
-97.6635	2.7835	-18.1196	19.7348	41.6293	49.6248
-97.493	3.1723	38.3578	-25.0343	41.242	49.393
-97.3264	3.487	-12.0685	4.4562	41.2979	49.0725
-97.3457	3.8338	-0.0003	-0.0001	41.1774	48.9296
-97.2605	4.0282	-5.6455	22.8128	40.8331	48.7943
-97.3882	4.4534	5.1959	-7.5788	40.6997	48.4312
-97.272	4.523	0.8478	-20.5169	40.3254	48.4195
