Oxysoft export of:	C:\Users\NIRS\Desktop\ole_testing_23nov
Export date:	2016/11/23 21:35:46
Start of measurement:	2016-11-23 21:31:39.140

Datafile sample rate:	25.00	Hz
Datafile duration:	139.40	s
Datafile total number of samples:	3485

Description:	

Optode-template:	3 x 1 channel (split) I
Optode distance (mm):	 10.00	10.00	10.00
Optode gradients (mm):	 -	-	-
DPF:	4.00	4.00	4.00

Device id:	10221
# Receivers:	2
# Light sources:	8
# ADC:	0

Light source wavelengths:
device	index	wavelength
1	1	847	nm
1	2	762	nm
1	3	847	nm
1	4	761	nm
1	5	847	nm
1	6	761	nm
1	7	847	nm
1	8	761	nm

Export sample rate:	25.00	Hz
No time span selected, exporting full time span



Legend:
Column	Trace (Measurement)
1	(Sample number)
2	Rx1 - Tx1 O2Hb (ole_testing_23nov)
3	Rx1 - Tx1 HHb (ole_testing_23nov)
4	Rx2a - Tx2 O2Hb (ole_testing_23nov)
5	Rx2a - Tx2 HHb (ole_testing_23nov)
6	Rx2b - Tx3 O2Hb (ole_testing_23nov)
7	Rx2b - Tx3 HHb (ole_testing_23nov)
8	(Event)


1	2	3	4	5	6	7	8
     0	 0.9058	 0.8289	31.3939	10.2975	-6.5420	11.3742	 
     1	 1.1343	 0.8941	26.0928	 9.1063	-6.5505	11.8646	 
     2	 0.9833	 0.8753	37.0719	 2.0161	-6.5462	11.9380	 
     3	 0.8710	 0.8797	31.5299	 1.1763	-6.6193	11.9650	 
     4	 1.0491	 0.6997	 5.4948	26.7204	-6.7269	12.0422	 
     5	 0.8632	 0.7318	21.6553	24.5014	-6.7269	12.0422	 
     6	 0.9019	 0.7549	24.1622	16.3039	-6.3267	12.4941	 
     7	 1.3162	 0.7881	49.3227	-15.8518	-5.3843	12.6335	 
     8	 1.3937	 0.8344	12.4597	20.6251	-5.2552	12.9231	 
     9	 1.4943	 0.6080	24.9306	 6.4993	-5.3714	12.8536	 
    10	 1.0103	 0.6765	17.4702	 9.2541	-5.5951	12.8612	 
    11	 0.9290	 0.5561	31.3939	10.2975	-5.9608	12.9963	 
    12	 0.7819	 0.6114	26.0928	 9.1063	-5.9135	13.1662	 
    13	 0.6696	 0.6158	32.6465	13.1710	-5.6080	13.2783	 
    14	 0.9909	 0.3065	39.7217	-1.8486	-5.0701	13.5295	 
    15	 0.7741	 0.4634	18.0420	29.7714	-5.1647	13.8268	 
    16	 0.8981	 0.6809	32.9029	 3.5555	-5.4358	13.6645	 
    17	 0.7626	 0.9582	37.1081	11.5235	-6.0468	13.4403	 
    18	 0.6155	 1.0134	 5.9006	34.2547	-6.0511	13.3670	 
    19	 0.3987	 1.1702	18.4130	11.9422	-6.2878	13.1545	 
    20	 0.0463	 0.8875	31.5299	 1.1763	-6.6063	12.8223	 
    21	-0.3796	 0.6324	12.9551	23.9656	-6.7741	12.5094	 
    22	-0.7978	 0.5253	14.6828	13.3196	-6.7699	11.9456	 
    23	-0.6120	 0.4933	25.1097	-1.8882	-6.3485	10.8529	 
    24	-0.3177	 0.3828	29.4118	17.8889	-5.7678	 9.9263	 
    25	-0.3991	 0.2624	32.5701	-4.6429	-5.4624	 9.4012	 
    26	-0.6314	 0.1233	34.9101	-8.0559	-5.1570	 8.8761	 
    27	-0.8676	-0.0899	20.1200	 5.3895	-4.9204	 8.4514	 
    28	-1.2626	-0.4698	37.0719	 2.0161	-4.7914	 8.1039	 
    29	-1.4253	-0.7105	25.1097	-1.8882	-4.7269	 7.9302	 
    30	-1.4796	-1.0297	 7.0111	13.1162	-4.7226	 8.0035	 
    31	-1.5919	-1.0253	16.5361	 6.7128	-4.8215	 8.2275	 
    32	-1.2667	-1.2605	21.5258	-0.5648	-4.7871	 8.1773	 
    33	-1.1776	-0.9922	18.0882	 0.7046	-4.4774	 7.7256	 
    34	-1.1194	-0.5990	21.5258	-0.5648	-4.1118	 6.9534	 
    35	-0.8484	-0.4366	23.8501	 4.0121	-3.5354	 5.9534	 
    36	-0.5193	-0.5979	 9.6608	 9.2516	-3.0623	 5.1040	 
    37	-0.7244	-0.2191	21.5258	-0.5648	-2.6924	 4.4051	 
    38	-0.7205	-0.1451	15.6450	 4.2681	-2.2493	 3.6793	 
    39	-0.9064	-0.1131	 2.5528	 9.1025	-1.9396	 3.2276	 
    40	-0.5076	-0.3759	-5.9913	15.0312	-1.8364	 3.0770	 
    41	-0.2095	-0.4124	14.9203	-5.5099	-1.5912	 2.7990	 
    42	-0.1360	-0.4400	15.9705	-3.5362	-1.2170	 2.1736	 
    43	-0.1747	-0.4632	 1.3385	 4.3407	-0.7739	 1.4477	 
    44	-0.2521	-0.5096	-3.9271	 8.8339	-0.5417	 0.9496	 
    45	-0.4921	-0.0799	-1.5871	 5.4210	-0.5417	 0.9496	 
    46	-0.3372	 0.0128	-2.8529	 1.0530	-0.5417	 0.9496	 
    47	-0.1514	-0.0192	 7.3361	 2.1260	-0.6105	 1.0500	 
    48	-0.0700	 0.1012	 9.6073	-1.1865	-0.6105	 1.0500	 
    49	 0.1855	-0.0325	 2.0987	-3.0619	-0.5761	 0.9998	 
    50	 0.1468	-0.0557	 4.9960	 5.5390	-0.4040	 0.7489	 
    51	 0.0035	 0.0736	 6.5354	-0.0522	-0.2707	 0.4747	 
    52	 0.1855	-0.0325	 5.7777	-2.1339	-0.0986	 0.2238	 
    53	 0.0423	 0.0967	 4.9960	 5.5390	-0.0686	 0.1002	 
    54	-0.0004	-0.0004	-0.0004	-0.0003	 0.0003	-0.0002	 
    55	 0.0771	 0.0459	 7.8768	-5.1955	 0.0046	 0.0732	 
    56	 0.2978	-0.0369	-3.9271	 8.8339	-0.3696	 0.6987	 
    57	 0.4797	-0.1429	 2.0987	-3.0619	-0.3309	 0.7219	 
    58	 0.3674	-0.1385	-3.4600	-1.0093	 0.0046	 0.0732	 
    59	 0.5184	-0.1197	-0.2817	-8.5926	 0.2067	-0.3013	 
    60	 0.6852	 0.9118	 7.3361	 2.1260	 0.2412	-0.3515	 
    61	 2.2615	 3.0742	 7.8768	-5.1955	 0.0347	-0.0503	 
    62	 5.3287	 6.4878	-3.4600	-1.0093	-0.3094	 0.4516	 
    63	 8.7018	10.0129	-4.4396	 6.4743	-0.8858	 1.4515	 
    64	11.6253	11.4055	14.9203	-5.5099	-1.9095	 3.1040	 
    65	13.5537	12.4170	28.8802	 5.0409	-2.0859	 3.2816	 
    66	15.2071	13.1922	44.8409	15.9399	 0.8003	-1.6450	 
    67	16.0397	14.0492	46.1831	38.1218	 5.7813	-9.7065	 
    68	16.8104	15.1558	67.0025	 7.7566	 8.6718	-14.5597	 
    69	17.4378	15.6749	72.1884	13.9756	 8.6846	-14.9767	 
    70	17.3372	15.9013	18.3402	60.2478	 8.7104	-15.1737	 
    71	15.4939	14.3673	41.2276	21.2099	 8.7534	-15.0771	 
    72	 9.8209	10.6115	19.0479	48.1417	 6.2760	-10.1890	 
    73	 7.7917	 9.1095	 9.6608	 9.2516	 1.0198	-1.0888	 
    74	10.1885	 9.7566	-15.0231	-10.8333	 7.0202	-10.8762	 
    75	 5.6576	 5.6097	-25.2015	-24.4298	 9.4247	-15.1001	 
    76	 3.1827	 2.0492	-19.6909	-30.4753	 9.2783	-15.6832	 
    77	 1.3671	 3.1835	-29.2675	-24.3152	 9.0760	-15.9459	 
    78	 1.1152	 1.9576	-26.8816	-35.2044	 8.8780	-16.1352	 
    79	 0.8245	 0.7086	-34.3847	-31.2718	 8.7274	-16.1545	 
    80	 0.0538	-0.3980	-39.2587	-25.8362	 8.7231	-16.2279	 
    81	-1.1196	-1.3157	-27.4239	-36.1661	 8.6457	-16.2743	 
    82	-1.4837	-1.8204	-30.1507	-30.4363	 8.6457	-16.2743	 
    83	-1.9444	-2.0247	-14.4696	-42.0741	 8.6413	-16.3476	 
    84	-2.5523	-2.1738	-23.3486	-32.9480	 8.5682	-16.3206	 
    85	-2.5757	-2.6178	-29.0495	-32.0424	 8.6026	-16.3708	 
    86	-3.3850	-3.0308	-24.0028	-33.9059	 8.5295	-16.3438	 
    87	-4.4770	-3.8281	-31.5007	-24.8025	 8.5639	-16.3940	 
    88	-6.1111	-4.9502	-27.4096	-28.9371	 8.4907	-16.3670	 
    89	-8.6166	-6.9524	-22.9016	-35.5120	 8.4907	-16.3670	 
    90	-11.2034	-9.0749	-21.5933	-33.5962	 8.4907	-16.3670	 
    91	-14.6809	-11.7309	-23.3479	-29.1249	 8.5295	-16.3438	 
    92	-17.3878	-13.9970	-16.6579	-32.9072	 8.5295	-16.3438	 
    93	-18.5728	-15.1367	-20.8953	-28.7187	 8.5295	-16.3438	 
    94	-19.9088	-16.2952	-29.8185	-25.4237	 8.4907	-16.3670	 
    95	-20.8770	-17.5918	-18.0094	-34.9196	 8.4176	-16.3400	 
    96	-20.4513	-18.0534	-27.0300	-23.7546	 8.5338	-16.2704	 
    97	-20.0334	-19.3798	-26.8587	-27.8286	 8.6887	-16.1777	 
    98	-17.2728	-18.9448	-26.4748	-22.5727	 8.7748	-15.9846	 
    99	-13.7103	-16.8112	-23.0750	-19.4050	 8.7877	-15.7645	 
   100	-10.5504	-14.4888	-0.9070	-16.0458	 8.8394	-15.5212	 
   101	-8.1450	-10.1099	22.6995	-6.0209	 8.9428	-15.0346	 
   102	-7.0603	-7.3103	34.2845	 6.0815	 6.3448	-10.2894	 
   103	-9.1552	-8.6366	51.8330	17.2938	-0.0084	-0.1469	 
   104	-9.2286	-7.8922	47.9622	49.3097	-4.8345	 8.0074	 
   105	-9.8674	-7.9165	75.5093	32.9529	-6.6450	12.7991	 
   106	-12.0942	-10.3251	83.7010	29.9280	-5.7499	13.4057	 
   107	-16.5093	-15.8359	63.5339	50.4192	-4.8600	 9.4787	 
   108	-22.2834	-21.5157	70.4950	23.9343	-1.5694	 4.4403	 
   109	-23.2747	-21.8227	29.4307	49.9678	 1.7773	 0.3557	 
   110	-20.8735	-18.9513	38.4812	14.5399	 4.5127	-5.8646	 
   111	-17.6975	-14.1826	 6.9890	-13.3015	 4.9707	 4.4617	 
   112	-13.2899	-7.3862	-32.7051	-23.0459	 2.3517	11.3887	 
   113	-17.3752	-10.1912	-41.3016	-21.1835	-5.7635	 9.9997	 
   114	-23.6142	-16.8660	-31.8140	-20.6011	-7.3288	14.5135	 
   115	-23.2349	-17.4989	-33.6608	-25.3169	-6.1024	15.0352	 
   116	-21.3994	-16.1129	-23.8989	-30.2334	-2.8536	16.9092	 
   117	-17.9880	-14.7149	-23.4270	-14.5896	-0.1038	18.5551	 
   118	-15.4132	-14.2478	-8.8710	-14.8668	 1.9702	19.5135	 
   119	-13.8026	-14.2866	-8.2653	 3.0516	-2.4539	14.1752	 
   120	-9.5624	-11.3888	11.8687	-11.0176	-1.7332	 2.9264	 
   121	-3.1263	-5.9575	13.8744	-7.4102	-2.0429	 3.3781	 
   122	 0.6534	-2.5472	16.9047	22.5072	-3.1612	 5.3279	 
   123	-0.9304	-3.4241	38.0991	-4.0233	-4.0343	 6.9997	 
   124	-3.1261	-5.2408	 5.9961	38.4176	-3.2257	 5.5017	 
   125	-4.3033	-6.2325	26.0928	 9.1063	-1.5440	 2.3318	 
   126	-4.9385	-6.8995	38.5998	 4.4880	-2.6709	 4.1348	 
   127	-6.3247	-7.5864	31.3939	10.2975	-3.4495	 5.5093	 
   128	-7.5522	-8.1065	16.9047	22.5072	-2.6021	 4.0344	 
   129	-7.8775	-8.5880	25.0965	19.4823	 0.8648	-1.8187	 
   130	-6.4796	-7.6792	35.0400	19.5590	 7.5234	-12.4863	 
   131	-5.3177	-6.2667	35.0400	19.5590	 8.8395	-14.8840	 
   132	-5.0078	-5.3644	35.0400	19.5590	 8.8180	-15.2509	 
   133	-4.1403	-4.5582	36.2540	23.0464	 8.6587	-15.4170	 
   134	-3.8535	-3.3831	30.4322	21.2604	 8.5813	-15.4633	 
   135	-3.3424	-2.9336	38.4812	14.5399	 8.4651	-15.5329	 
   136	-3.2571	-2.7392	48.2821	10.9209	 8.3145	-15.5522	 
   137	-3.5399	-3.1236	37.1081	11.5235	 8.3446	-15.6758	 
   138	-3.8148	-3.3599	37.0719	 2.0161	 8.3058	-15.6990	 
   139	-4.2098	-3.7398	24.1622	16.3039	 8.3446	-15.6758	 
   140	-5.5110	-4.9491	13.4635	27.5262	 8.6674	-15.2702	 
   141	-7.2767	-5.7199	13.8863	10.5775	 6.7147	-10.9883	 
   142	-7.4199	-5.5907	23.2022	13.3223	 1.9746	-3.2781	 
   143	-7.5980	-5.4106	21.5258	-0.5648	 4.8350	-8.0077	 
   144	-7.2222	-4.6840	15.5224	16.1582	 8.8051	-14.8338	 
   145	-6.6570	-4.6321	26.0928	 9.1063	 8.7835	-15.2007	 
   146	-5.8475	-3.5023	13.8863	10.5775	 8.6460	-14.3627	 
   147	-4.9530	-2.8949	11.7922	17.5356	 1.7768	-2.8302	 
   148	-4.6779	-1.9418	12.9551	23.9656	-0.7008	 1.4207	 
   149	-4.9372	-1.8822	16.1899	19.2477	-0.6750	 1.2238	 
   150	-5.1425	-2.2201	24.1622	16.3039	-0.5460	 0.8763	 
   151	-5.0806	-2.4697	18.4130	11.9422	-0.8514	 1.4014	 
   152	-4.6200	-2.9822	14.6828	13.3196	-1.3289	 2.1774	 
   153	-4.7749	-3.0749	14.6828	13.3196	-1.6342	 2.7025	 
   154	-4.6626	-3.0793	17.4702	 9.2541	-1.9784	 3.2044	 
   155	-4.6743	-3.3013	463.5091	-149.2643	-2.0816	 3.3550	 
   156	-4.7479	-3.2737	453.7705	-135.0604	-2.2881	 3.6561	 
   157	-4.4963	-3.4814	469.1871	-157.5457	-2.4300	 3.7835	 
   158	-4.6241	-3.7729	469.1871	-157.5457	-2.3956	 3.7333	 
   159	-4.5157	-3.8513	457.2117	-140.0795	-2.3956	 3.7333	 
   160	-4.6280	-3.8469	174.1006	-39.0620	-2.4344	 3.7101	 
   161	-4.5854	-3.7497	177.1633	-43.5290	-2.5376	 3.8607	 
   162	-4.6550	-3.6481	188.0376	-59.3892	-2.5720	 3.9109	 
   163	-4.7015	-3.8193	180.0539	-47.7450	-2.5376	 3.8607	 
   164	-4.7675	-4.3605	182.8413	-51.8104	-0.3912	 0.3318	 
   165	-4.6899	-3.5973	167.4247	-29.3251	 7.4803	-12.5829	 
   166	-3.5864	-3.2948	185.4911	-55.6751	 8.6286	-15.2934	 
   167	-3.1836	-2.7669	188.0376	-59.3892	 8.4263	-15.5561	 
   168	-2.9279	-2.1837	50.9284	-11.4219	 8.1983	-15.6218	 
   169	-2.6529	-1.9474	53.2684	-14.8348	 8.0477	-15.6411	 
   170	-2.3006	-1.6647	 9.3683	 9.3596	 8.0090	-15.6643	 
   171	-2.1031	-1.4747	-21.5869	23.6763	 8.2370	-15.5986	 
   172	-1.9909	-2.1959	14.3580	 2.0820	 8.4437	-14.6254	 
   173	-2.9396	-2.4057	31.3134	17.1867	 2.4004	-4.2974	 
   174	-2.5214	-2.2986	11.9148	 5.6455	 5.9189	-9.9073	 
   175	-2.3665	-2.2059	-2.0222	25.9726	 8.6158	-14.8764	 
   176	-2.0528	-1.9463	14.3580	 2.0820	 8.5168	-15.2896	 
   177	-1.8668	-1.2616	 9.3683	 9.3596	 8.5212	-14.5790	 
   178	-2.4051	-1.5123	 1.0405	21.5057	 0.6325	-1.3206	 
   179	-2.0256	-1.4284	 1.0405	21.5057	-3.0451	 4.7603	 
   180	-1.9598	-1.6040	-2.0222	25.9726	-3.0839	 4.7371	 
   181	-2.1534	-1.7199	-5.2569	30.6905	-2.8172	 4.1888	 
   182	-2.0838	-1.8215	 9.3683	 9.3596	-3.0280	 4.4166	 
   183	-2.2270	-1.6923	-2.0222	25.9726	-3.0624	 4.4668	 
   184	-2.0721	-1.5995	-5.2569	30.6905	-3.1656	 4.6174	 
   185	-1.8049	-1.5112	 6.7185	13.2243	-3.2001	 4.6676	 
   186	-1.6113	-1.3952	45.9386	-4.1443	-3.1700	 4.5440	 
   187	-1.5648	-1.2241	 3.9312	17.2897	-3.1356	 4.4938	 
   188	-0.9686	-1.2970	-2.0222	25.9726	-3.1356	 4.4938	 
   189	-1.3286	-1.0109	 1.0405	21.5057	-3.1356	 4.4938	 
   190	-0.7092	-1.3566	-2.0222	25.9726	-3.1700	 4.5440	 
   191	-0.7285	-1.0098	40.5015	 3.7858	-3.4108	 4.8953	 
   192	-0.1245	-0.9348	34.5482	12.4688	-3.6775	 5.4436	 
   193	 0.1388	-0.9204	 1.0405	21.5057	-3.8453	 5.7679	 
   194	 0.1814	-0.8232	 6.7185	13.2243	-3.8453	 5.7679	 
   195	 0.0923	-1.0916	53.2684	-14.8348	-3.2732	 4.6946	 
   196	 0.0188	-1.0640	45.9386	-4.1443	 1.8799	-3.6179	 
   197	 0.3324	-0.8045	50.9284	-11.4219	 8.3233	-14.1311	 
   198	 0.7662	-0.4014	16.6981	-1.3310	 8.5254	-15.1428	 
   199	 0.8204	-0.0822	 3.9312	17.2897	 8.4393	-15.3359	 
   200	 1.2308	-0.1231	 9.3683	 9.3596	 8.3231	-15.4055	 
   201	 1.3161	 0.0713	-16.3907	16.0975	 8.2457	-15.4519	 
   202	 1.8813	 0.1232	 9.3683	 9.3596	 8.3618	-15.3823	 
   203	 1.6762	 0.5020	 3.9312	17.2897	 7.1577	-12.3513	 
   204	 1.3046	 0.5661	-2.0222	25.9726	-1.5010	 1.7912	 
   205	 0.6231	 0.4446	-2.0222	25.9726	 0.3744	-1.2628	 
   206	 0.5805	 0.3474	11.9148	 5.6455	 7.7082	-13.1543	 
   207	 1.2619	 0.4689	16.6981	-1.3310	 8.5082	-14.7992	 
   208	 1.6920	 1.5147	31.3134	17.1867	 6.1125	-10.4285	 
   209	 2.5439	 2.0249	37.6109	 8.0018	-3.4237	 5.3124	 
   210	 3.2060	 2.4932	-5.2569	30.6905	-5.5872	 9.1849	 
   211	 3.3454	 2.2900	37.6109	 8.0018	-6.0303	 9.9108	 
   212	 2.9311	 2.2569	27.8722	22.2057	-6.3012	10.3857	 
   213	 2.9698	 2.2801	31.3134	17.1867	-6.4045	10.5363	 
   214	 2.6949	 2.0437	34.5482	12.4688	-6.5120	10.6135	 
   215	 2.3890	 1.9322	37.6109	 8.0018	-6.6239	10.6173	 
   216	 2.0831	 1.8207	45.9386	-4.1443	-6.5594	10.4435	 
   217	 2.1759	 1.4463	16.2753	39.1199	-6.4217	10.2428	 
   218	 2.1411	 1.4971	-5.2569	30.6905	-6.6325	10.4705	 
   219	 2.0985	 1.3999	43.2889	-0.2796	-6.7358	10.6211	 
   220	 1.7307	 1.5379	-8.6981	35.7096	-6.7401	10.5477	 
   221	 1.8003	 1.4363	-2.0222	25.9726	-6.7745	10.5979	 
   222	 1.5215	 1.1260	24.2589	27.4757	-6.7788	10.5245	 
   223	 1.0376	 1.1945	50.9284	-11.4219	-5.1873	 7.7254	 
   224	 1.4053	 1.0564	 1.0405	21.5057	 1.5959	-3.3631	 
   225	 1.8739	 1.4087	 6.7185	13.2243	 7.5749	-12.8802	 
   226	 2.2611	 1.6406	 1.0405	21.5057	 8.4781	-14.6756	 
   227	 2.7877	 1.6693	11.9148	 5.6455	 8.4308	-14.8455	 
   228	 3.3917	 1.7444	 6.7185	13.2243	 8.5082	-14.7992	 
   229	 3.5079	 1.8140	 6.7185	13.2243	 4.8779	-8.5483	 
   230	 3.3220	 1.8460	-5.2569	30.6905	-5.1443	 7.8219	 
   231	 3.2677	 1.5268	-5.2569	30.6905	-5.6562	 8.6481	 
   232	 3.0471	 1.6097	-2.0222	25.9726	-0.5849	 0.2159	 
   233	 3.3026	 1.4760	43.2889	-0.2796	 4.8736	-8.6217	 
   234	 3.7867	 2.1243	 6.7185	13.2243	 5.1833	-9.0734	 
   235	 4.3018	 2.6478	43.2889	-0.2796	-2.4172	 3.3664	 
   236	 4.5613	 3.3049	37.6109	 8.0018	-7.9314	13.1617	 
   237	 4.5421	 3.6517	34.5482	12.4688	-8.5551	14.6289	 
   238	 4.2632	 3.3413	20.4048	33.0970	-9.1917	15.2389	 
   239	 4.1780	 3.1470	34.5482	12.4688	-9.2391	15.0689	 
   240	 4.3095	 2.7958	-8.6981	35.7096	-9.5187	15.3971	 
   241	 3.8953	 2.7626	 1.0405	21.5057	-9.7166	15.8450	 
   242	 3.7017	 2.6467	34.5482	12.4688	-10.1553	16.6442	 
   243	 3.5894	 2.6511	34.5482	12.4688	-10.4219	17.1925	 
   244	 4.3288	 2.4490	40.5015	 3.7858	-10.3874	17.7794	 
   245	 5.0103	 2.5704	-141.4701	269.1930	-9.2084	18.1312	 
   246	 5.3123	 2.6080	-141.4701	269.1930	-8.3650	18.4945	 
   247	 5.6104	 2.5715	-141.4701	269.1930	-8.3177	18.6644	 
   248	 6.2957	 2.7670	-141.4701	269.1930	-8.3822	18.8382	 
   249	 6.0867	 3.0718	-141.4701	269.1930	-8.7392	19.1200	 
   250	 6.5358	 3.0541	-43.2824	86.1510	-8.8812	19.2474	 
   251	 6.7837	 3.4892	-6.7120	72.6471	-8.4509	19.5758	 
   252	 7.3142	 3.5919	-6.7120	72.6471	-8.1711	19.8848	 
   253	 7.8717	 3.4958	-6.7120	72.6471	-8.0119	20.0509	 
   254	 7.8176	 3.8934	-6.7120	72.6471	-7.9602	20.2942	 
   255	 7.9106	 4.2358	-6.7120	72.6471	-8.1366	20.4718	 
   256	 8.4720	 4.2136	-6.7120	72.6471	-8.2054	20.5721	 
   257	 8.8475	 4.2236	-6.7120	72.6471	-8.2141	20.4254	 
   258	 8.7469	 4.4500	34.7203	12.2178	-8.4335	20.5064	 
   259	 8.8979	 4.4687	34.7203	12.2178	-8.6572	20.5141	 
   260	 8.9018	 4.5427	-6.7120	72.6471	-8.9283	20.3518	 
   261	 8.9871	 4.7371	34.7203	12.2178	-9.1177	20.3093	 
   262	 9.6646	 4.7846	-6.7120	72.6471	-8.2915	20.3790	 
   263	10.0789	 4.8177	34.7203	12.2178	-7.4353	20.3253	 
   264	10.4854	 4.7028	-6.7120	72.6471	-7.7494	20.0664	 
   265	10.3809	 4.8552	-6.7120	72.6471	-8.2185	19.7149	 
   266	10.5551	 4.6012	-6.7120	72.6471	-8.8252	19.5641	 
   267	10.6364	 4.7216	34.7203	12.2178	-9.0533	19.4983	 
   268	10.5860	 4.4764	-6.7120	72.6471	-8.8252	19.5641	 
   269	10.5782	 4.3284	-6.7120	72.6471	-8.4853	19.6259	 
   270	10.2879	 4.5129	-6.7120	72.6471	-7.8958	19.4833	 
   271	10.1097	 3.9761	44.7790	53.6337	-7.0483	19.2827	 
   272	 9.3313	 3.4383	34.7203	12.2178	-6.6224	18.9006	 
   273	 8.6111	 3.2937	34.7203	12.2178	-6.8161	18.1475	 
   274	 8.9595	 2.7856	34.7203	12.2178	-7.0486	17.3712	 
   275	 8.6614	 2.8221	44.7790	53.6337	-6.0246	16.9931	 
   276	 8.7233	 2.5725	44.7790	53.6337	-4.7209	16.9240	 
   277	 7.9217	 2.3075	34.7203	12.2178	-3.4774	17.1021	 
   278	 7.3292	 1.7376	-6.7120	72.6471	-2.6513	17.1718	 
   279	 7.0000	 1.1821	-6.7120	72.6471	-1.9500	17.0253	 
   280	 6.7134	 0.7238	-6.7120	72.6471	-1.2444	16.9522	 
   281	 7.1740	 0.2113	34.7203	12.2178	 0.3433	16.6283	 
   282	 7.3482	-0.0427	-6.7120	72.6471	 1.3328	16.3004	 
   283	 7.5418	 0.0732	34.7203	12.2178	 1.4919	15.8293	 
   284	 7.6270	 0.2676	-43.2824	86.1510	 1.0445	15.8446	 
   285	 7.6579	 0.1428	34.7203	12.2178	 0.8595	15.8755	 
   286	 7.4760	 0.2488	44.7790	53.6337	 0.7605	16.0994	 
   287	 7.1392	 0.2621	-6.7120	72.6471	 0.9585	16.2887	 
   288	 7.2127	 0.2345	-6.7120	72.6471	 1.1694	16.6981	 
   289	 7.5069	 0.1240	-6.7120	72.6471	 1.3243	16.7908	 
   290	 7.5922	 0.3184	86.2113	-6.7956	 1.1824	16.9182	 
   291	 7.5883	 0.2444	-6.7120	72.6471	 0.7349	16.9335	 
   292	 7.5108	 0.1980	34.7203	12.2178	 0.8682	16.6594	 
   293	 7.6889	 0.0180	34.7203	12.2178	 0.3132	16.7519	 
   294	 7.2398	 0.0357	34.7203	12.2178	 0.1927	16.6090	 
   295	 7.2939	-0.3619	-6.7120	72.6471	 0.0851	16.6862	 
   296	 6.8642	 0.0258	34.7203	12.2178	-0.0698	16.5934	 
   297	 7.0654	-0.4270	34.7203	12.2178	-0.1860	16.5239	 
   298	 6.8757	-0.4690	-6.7120	72.6471	-0.4054	16.6049	 
   299	 7.0886	-0.6998	-6.7120	72.6471	-0.0913	16.8637	 
   300	 7.3170	-0.6347	44.7790	53.6337	 1.1092	16.9452	 
   301	 7.2667	-0.8799	44.7790	53.6337	 1.8449	16.7485	 
   302	 7.5492	-1.2123	86.2113	-6.7956	 1.7761	16.8489	 
   303	 7.2781	-1.3746	86.2113	-6.7956	 1.6298	16.9029	 
   304	 7.1929	-1.5690	44.7790	53.6337	 1.4104	16.9839	 
   305	 6.8678	-1.3338	-6.7120	72.6471	1381.5022	-492.6253	 
   306	 7.0768	-1.6386	-6.7120	72.6471	1381.5709	-492.7257	 
   307	 7.1116	-1.6894	34.7203	12.2178	1381.5022	-492.6253	 
   308	 6.8909	-1.6065	34.7203	12.2178	1381.3989	-492.4747	 
   309	 6.9180	-1.8053	44.7790	53.6337	1381.3645	-492.4246	 
   310	 6.6160	-1.8429	86.2113	-6.7956	1095.8447	-387.2566	 
   311	 6.4727	-1.7137	-6.7120	72.6471	1096.0511	-387.5577	 
   312	 6.5346	-1.9633	44.7790	53.6337	1096.2577	-387.8589	 
   313	 6.0507	-1.8948	44.7790	53.6337	1096.5674	-388.3106	 
   314	 6.0081	-1.9920	-6.7120	72.6471	1096.8082	-388.6619	 
   315	 6.3062	-2.0284	-6.7120	72.6471	1096.7394	-388.5616	 
   316	 6.3179	-1.8064	34.7203	12.2178	1096.4297	-388.1098	 
   317	 6.3760	-1.4133	34.7203	12.2178	1095.7070	-387.0558	 
   318	 6.6084	-1.2741	-6.7120	72.6471	 2.4775	17.3396	 
   319	 6.9839	-1.2642	-6.7120	72.6471	 2.5721	17.0422	 
   320	 6.9995	-0.9682	34.7203	12.2178	 1.7201	16.5322	 
   321	 6.8911	-0.8898	-6.7120	72.6471	 0.9068	16.0454	 
   322	 6.9220	-1.0146	34.7203	12.2178	 0.6444	16.0299	 
   323	 6.7866	-0.7374	34.7203	12.2178	 0.7778	16.3929	 
   324	 6.7401	-0.9086	34.7203	12.2178	 1.1220	16.5282	 
   325	 6.9917	-1.1162	34.7203	12.2178	 1.5609	16.3661	 
   326	 6.6897	-1.1537	34.7203	12.2178	 1.5695	16.5129	 
   327	 6.6161	-1.1261	34.7203	12.2178	 2.2020	16.4667	 
   328	 6.3955	-1.0433	34.7203	12.2178	 2.6323	16.7951	 
   329	 6.2986	-1.4596	-6.7120	72.6471	 3.2434	17.0193	 
   330	 6.1437	-1.5524	44.7790	53.6337	 3.9362	17.3632	 
   331	 6.1591	-1.9732	86.2113	-6.7956	 4.2159	17.6722	 
   332	 5.8184	-2.0339	86.2113	-6.7956	 4.5601	17.8075	 
   333	 5.5551	-2.0483	-6.7120	72.6471	 4.7451	17.7767	 
   334	 5.7331	-2.2283	34.7203	12.2178	 4.6032	17.9041	 
   335	 5.8841	-2.2095	-6.7120	72.6471	 4.9130	18.0895	 
   336	 6.1591	-1.9732	44.7790	53.6337	 5.6660	18.1863	 
   337	 6.6160	-1.8429	-6.7120	72.6471	 6.0834	18.2946	 
   338	 6.7012	-1.6485	-6.7120	72.6471	 6.0877	18.3680	 
   339	 6.4574	-1.2929	174.2727	-39.3130	 5.6488	18.5300	 
   340	 6.4961	-1.2697	86.2113	-6.7956	 5.3907	18.5878	 
   341	 6.6626	-0.9549	86.2113	-6.7956	 5.0724	18.8928	 
   342	 6.6473	-0.5342	-6.7120	72.6471	 4.8228	19.0974	 
   343	 7.0267	-0.4502	44.7790	53.6337	 4.8659	19.1940	 
   344	 6.9029	 0.0490	44.7790	53.6337	 4.9821	19.2635	 
   345	 7.3559	 0.1053	-6.7120	72.6471	 5.3994	19.3718	 
   346	 7.4102	 0.4244	44.7790	53.6337	 5.6749	19.6074	 
   347	 7.5768	 0.7392	44.7790	53.6337	 5.9159	19.8933	 
   348	 8.0027	 0.9943	44.7790	53.6337	 6.0579	20.4030	 
   349	 8.2041	 1.2582	44.7790	53.6337	 6.6776	20.7740	 
   350	 8.0996	 1.4107	44.7790	53.6337	 7.1553	21.2723	 
   351	 8.0880	 1.1887	86.2113	-6.7956	 7.3275	21.6585	 
   352	 8.1111	 0.9159	44.7790	53.6337	 7.6717	21.7938	 
   353	 7.9446	 0.6011	-6.7120	72.6471	 8.5065	22.0103	 
   354	 7.8360	-0.0372	44.7790	53.6337	 9.5219	22.1226	 
   355	 7.3674	-0.3895	44.7790	53.6337	 9.8446	21.8910	 
   356	 7.2859	-1.2266	44.7790	53.6337	 8.9366	21.0643	 
   357	 6.4727	-1.7137	44.7790	53.6337	 5.6533	19.2405	 
   358	 5.9808	-2.5099	-6.7120	72.6471	 3.2649	17.3862	 
   359	 5.4619	-3.1074	86.2113	-6.7956	 4.0352	17.7764	 
   360	 5.5354	-3.1350	44.7790	53.6337	 6.4277	19.0670	 
   361	 5.7096	-3.3890	44.7790	53.6337	 7.3873	19.4998	 
   362	 5.8102	-3.6154	44.7790	53.6337	 7.7359	19.7085	 
   363	 5.8102	-3.6154	44.7790	53.6337	 8.3082	19.9095	 
   364	 6.1510	-3.5547	86.2113	-6.7956	 8.8030	20.0641	 
   365	 6.1975	-3.3835	86.2113	-6.7956	-615.4424	931.6467	 
   366	 6.4568	-3.4432	86.2113	-6.7956	-614.5647	931.3226	 
   367	 6.4298	-3.2444	44.7790	53.6337	-613.9064	931.0796	 
   368	 6.9834	-3.4145	-6.7120	72.6471	-613.4676	930.9175	 
   369	 6.6388	-3.5492	44.7790	53.6337	-612.8093	930.6745	 
   370	 6.6658	-3.7480	86.2113	-6.7956	-476.3346	733.4573	 
   371	 7.2156	-3.9921	44.7790	53.6337	-474.5792	732.8091	 
   372	 6.9562	-3.9324	44.7790	53.6337	-473.8478	732.5390	 
   373	 6.7818	-4.3952	44.7790	53.6337	-474.1404	732.6470	 
   374	 6.2475	-4.5719	44.7790	53.6337	-474.4329	732.7551	 
   375	 6.1080	-5.0854	44.7790	53.6337	-474.9449	732.9441	 
   376	 5.5349	-5.2853	44.7790	53.6337	-474.8718	732.9171	 
   377	 4.9889	-5.6840	44.7790	53.6337	-474.7986	732.8901	 
   378	 4.9926	-6.3267	44.7790	53.6337	12.6155	21.9923	 
   379	 4.5435	-6.3090	86.2113	-6.7956	12.2412	21.9806	 
   380	 4.2956	-6.7442	44.7790	53.6337	11.8410	21.5287	 
   381	 4.2413	-7.0633	44.7790	53.6337	11.4193	21.3470	 
   382	 4.0168	-7.0545	44.7790	53.6337	11.1181	21.3083	 
   383	 3.7922	-7.0457	44.7790	53.6337	10.8556	21.2928	 
   384	 3.8387	-6.8745	44.7790	53.6337	10.4726	21.1343	 
   385	 4.1330	-6.9849	-6.7120	72.6471	10.0209	21.0763	 
   386	 3.9162	-6.8281	44.7790	53.6337	 9.9778	20.9797	 
   387	 4.2956	-6.7442	44.7790	53.6337	10.5415	21.0340	 
   388	 4.9537	-7.0667	44.7790	53.6337	11.6344	21.1927	 
   389	 4.9615	-6.9187	44.7790	53.6337	12.0130	21.2777	 
   390	 4.7796	-6.8127	44.7790	53.6337	11.9055	21.3549	 
   391	 4.8144	-6.8635	44.7790	53.6337	11.8367	21.4553	 
   392	 4.4311	-7.0214	44.7790	53.6337	11.5828	21.5865	 
   393	 4.3497	-7.1418	44.7790	53.6337	11.3677	21.7409	 
   394	 4.2567	-7.4841	86.2113	-6.7956	11.3720	21.8143	 
   395	 4.0902	-7.7989	44.7790	53.6337	10.6922	21.6905	 
   396	 3.6372	-7.8552	44.7790	53.6337	 9.2120	21.3000	 
   397	 3.1842	-7.9115	44.7790	53.6337	 7.4693	20.8939	 
   398	 3.3505	-8.3135	44.7790	53.6337	 6.6861	20.2835	 
   399	 3.3002	-8.5587	44.7790	53.6337	 6.4838	20.0209	 
   400	 2.7465	-8.3886	44.7790	53.6337	 6.6775	20.1368	 
   401	 2.7814	-8.4394	44.7790	53.6337	 6.8582	20.0326	 
   402	 2.8162	-8.4902	44.7790	53.6337	 6.3246	19.8548	 
   403	 2.7814	-8.4394	44.7790	53.6337	 6.4149	19.4841	 
   404	 3.4550	-8.4659	44.7790	53.6337	 6.9699	19.3916	 
   405	 3.6526	-8.2760	34.7203	12.2178	 8.3554	19.4422	 
   406	 3.5442	-8.1975	44.7790	53.6337	 8.9880	20.0333	 
   407	 3.8267	-8.5300	44.7790	53.6337	 9.4828	20.1879	 
   408	 3.6757	-8.5488	86.2113	-6.7956	 9.5646	20.3077	 
   409	 3.6718	-8.6228	44.7790	53.6337	 9.4915	20.3347	 
   410	 3.3389	-8.5355	44.7790	53.6337	 8.9536	20.0835	 
   411	 3.0795	-8.4758	86.2113	-6.7956	 8.1059	19.6468	 
   412	 2.9555	-8.6934	44.7790	53.6337	 8.2221	19.7164	 
   413	 2.5878	-8.5553	44.7790	53.6337	 8.1145	19.7936	 
   414	 2.9787	-8.9662	44.7790	53.6337	 7.6584	19.6621	 
   415	 2.6806	-8.9297	86.2113	-6.7956	 7.1636	19.5075	 
   416	 2.8238	-9.0590	86.2113	-6.7956	 6.7849	19.4224	 
   417	 2.4173	-8.9441	-6.7120	72.6471	 6.0964	19.1519	 
   418	 2.2315	-8.9120	-6.7120	72.6471	 5.3649	18.7848	 
   419	 2.0069	-8.9032	86.2113	-6.7956	 4.7969	18.6572	 
   420	 2.3011	-9.0137	86.2113	-6.7956	 4.7539	18.5606	 
   421	 2.3128	-8.7917	86.2113	-6.7956	 4.9174	18.8001	 
   422	 2.8316	-8.9110	-6.7120	72.6471	 5.6747	18.9702	 
   423	 2.7697	-8.6614	44.7790	53.6337	 6.2815	19.1210	 
   424	 3.1375	-8.7994	44.7790	53.6337	 6.2384	19.0245	 
   425	 2.9207	-8.6426	44.7790	53.6337	 5.6403	19.0204	 
   426	 2.8472	-8.6150	44.7790	53.6337	 5.5629	18.9741	 
   427	 2.8084	-8.6382	86.2113	-6.7956	 5.2574	18.8620	 
   428	 2.5878	-8.5553	44.7790	53.6337	 5.0680	18.8194	 
   429	 2.5451	-8.6525	44.7790	53.6337	 4.9174	18.8001	 
   430	 2.5529	-8.5045	86.2113	-6.7956	 4.7238	18.6842	 
   431	 2.6226	-8.6061	44.7790	53.6337	 4.4312	18.7922	 
   432	 2.3749	-8.3245	34.7203	12.2178	 4.1644	18.7033	 
   433	 2.4058	-8.4493	86.2113	-6.7956	 3.6395	18.6722	 
   434	 2.2200	-8.4173	44.7790	53.6337	 3.5577	18.5525	 
   435	 2.4368	-8.5741	44.7790	53.6337	 3.5190	18.5293	 
   436	 1.7516	-8.0528	86.2113	-6.7956	 3.2265	18.6373	 
   437	 2.0806	-8.2141	86.2113	-6.7956	 2.9253	18.5986	 
   438	 1.7477	-8.1268	44.7790	53.6337	 2.9597	18.5484	 
   439	 1.5037	-8.4879	34.7203	12.2178	 2.7789	18.0155	 
   440	 1.4687	-9.1539	-6.7120	72.6471	 0.7090	16.4933	 
   441	 1.5810	-9.1583	86.2113	-6.7956	-1.2231	15.4075	 
   442	 1.8481	-9.0700	-6.7120	72.6471	-3.0648	14.5882	 
   443	 2.1075	-9.1296	34.7203	12.2178	-4.2912	14.0665	 
   444	 1.8481	-9.0700	34.7203	12.2178	-5.3756	13.4174	 
   445	 1.5539	-8.9595	34.7203	12.2178	-6.2276	12.9074	 
   446	 1.5965	-8.8623	-6.7120	72.6471	-6.8473	12.5365	 
   447	 1.5230	-8.8347	-6.7120	72.6471	-6.5848	12.5520	 
   448	 1.6314	-8.9131	34.7203	12.2178	-5.7544	12.6951	 
   449	 1.3681	-8.9275	34.7203	12.2178	-5.4489	12.8072	 
   450	 1.3332	-8.8767	34.7203	12.2178	-5.2896	12.9733	 
   451	 1.2326	-8.6503	34.7203	12.2178	-5.6510	13.1817	 
   452	 1.3371	-8.8027	34.7203	12.2178	-5.9522	13.1430	 
   453	 1.3759	-8.7795	34.7203	12.2178	-6.1502	12.9537	 
   454	 0.9462	-8.3918	44.7790	53.6337	-6.6880	12.7026	 
   455	 1.0972	-8.3730	34.7203	12.2178	-7.0193	12.7874	 
   456	 1.0933	-8.4470	-1.8501	25.7217	-7.3162	12.8221	 
   457	 0.9579	-8.1698	34.7203	12.2178	-7.4238	12.8993	 
   458	 0.9579	-8.1698	34.7203	12.2178	-7.6001	13.0768	 
   459	 1.0779	-8.0263	-6.7120	72.6471	-7.2645	13.0654	 
   460	 1.6006	-8.0716	34.7203	12.2178	-6.2534	13.1043	 
   461	 2.0458	-8.1632	-6.7120	72.6471	-5.7629	13.1856	 
   462	 2.0923	-7.9921	-6.7120	72.6471	-6.0297	13.0967	 
   463	 1.7284	-7.7800	34.7203	12.2178	-6.5589	12.9922	 
   464	 1.9104	-7.8860	-6.7120	72.6471	-7.0451	12.9843	 
   465	 1.9182	-7.7380	34.7203	12.2178	-7.5099	12.7062	 
   466	 1.8098	-7.6596	34.7203	12.2178	-7.7853	12.4705	 
   467	 1.8175	-7.5116	34.7203	12.2178	-8.0865	12.4318	 
   468	 1.8989	-7.3913	-1.8501	25.7217	-8.1983	12.4356	 
   469	 1.7944	-7.2388	34.7203	12.2178	-8.6588	12.2308	 
   470	 1.8331	-7.2157	34.7203	12.2178	-8.9299	12.0685	 
   471	 1.6512	-7.1096	34.7203	12.2178	-9.5753	11.8945	 
   472	 1.6202	-6.9848	58.9464	-23.1163	-9.6571	11.7748	 
   473	 1.7673	-7.0400	-1.8501	25.7217	-9.7345	11.7284	 
   474	 1.5505	-6.8832	58.9464	-23.1163	-10.1089	11.7167	 
   475	 1.5157	-6.8324	34.7203	12.2178	-10.1906	11.5970	 
   476	 1.5854	-6.9340	34.7203	12.2178	-10.3412	11.5776	 
   477	 1.4887	-6.6336	58.9464	-23.1163	-10.4574	11.5081	 
   478	 1.2641	-6.6248	-1.8501	25.7217	-10.6080	11.4887	 
   479	 1.6667	-6.8136	-1.8501	25.7217	-10.7500	11.6161	 
   480	 2.1275	-6.6093	-1.8501	25.7217	-9.4377	11.6938	 
   481	 2.3211	-6.4934	34.7203	12.2178	-8.5254	11.9567	 
   482	 2.5031	-6.5994	34.7203	12.2178	-8.4867	11.9798	 
   483	 2.3211	-6.4934	-1.8501	25.7217	-8.6760	11.9373	 
   484	 2.1779	-6.3642	-1.8501	25.7217	-8.8353	11.7712	 
   485	 2.2476	-6.4658	34.7203	12.2178	-9.0934	11.8290	 
   486	 2.2514	-6.3918	-1.8501	25.7217	-9.1709	11.7827	 
   487	 2.1779	-6.3642	34.7203	12.2178	-9.0934	11.8290	 
   488	 1.8914	-6.1057	34.7203	12.2178	-9.3128	11.9101	 
   489	 1.8876	-6.1797	58.9464	-23.1163	-9.2096	11.7595	 
   490	 1.8837	-6.2537	34.7203	12.2178	-9.4333	11.7671	 
   491	 1.8179	-6.0781	-43.2824	86.1510	-9.6571	11.7748	 
   492	 1.8218	-6.0041	34.7203	12.2178	-9.8464	11.7322	 
   493	 1.7404	-6.1245	-6.7120	72.6471	-10.0013	11.6395	 
   494	 1.5624	-5.9445	34.7203	12.2178	-10.1906	11.5970	 
   495	 1.6359	-5.9721	34.7203	12.2178	-10.4101	11.6780	 
   496	 1.4927	-5.8429	-1.8501	25.7217	-10.3068	11.5274	 
   497	 1.2372	-5.7092	34.7203	12.2178	-10.5693	11.5119	 
   498	 1.4192	-5.8152	22.3761	-9.6124	-10.6468	11.4655	 
   499	 1.4192	-5.8152	34.7203	12.2178	-10.7973	11.4462	 
   500	 1.2721	-5.7600	34.7203	12.2178	-10.9910	11.3303	 
   501	 1.7947	-5.8053	-1.8501	25.7217	-10.4230	11.4579	 
   502	 2.3213	-5.7766	34.7203	12.2178	-9.1107	11.5355	 
   503	 2.2942	-5.5778	34.7203	12.2178	-8.5470	11.5898	 
   504	 2.2207	-5.5502	-6.7120	72.6471	-8.7708	11.5974	 
   505	 2.1432	-5.5966	-1.8501	25.7217	-9.1408	11.6591	 
   506	 2.0310	-5.5922	34.7203	12.2178	-9.2526	11.6629	 
   507	 2.0348	-5.5182	-1.8501	25.7217	-9.3301	11.6166	 
   508	 2.1084	-5.5458	-1.8501	25.7217	-9.2827	11.7865	 
   509	 1.9303	-5.3658	34.7203	12.2178	-9.1666	11.8560	 
   510	 1.7910	-5.1625	34.7203	12.2178	-8.9041	11.8716	 
   511	 2.1240	-5.2498	34.7203	12.2178	-8.7492	11.9643	 
   512	 2.0117	-5.2454	34.7203	12.2178	-8.9342	11.9951	 
   513	 2.0156	-5.1714	-1.8501	25.7217	-8.9772	11.8986	 
   514	 1.9846	-5.0466	86.2113	-6.7956	-8.9772	11.8986	 
   515	 2.0930	-5.1250	-1.8501	25.7217	-9.2311	12.0298	 
   516	 1.9381	-5.2178	34.7203	12.2178	-9.4892	12.0876	 
   517	 1.7640	-4.9637	34.7203	12.2178	-9.6011	12.0915	 
   518	 1.5781	-4.9317	34.7203	12.2178	-9.6140	11.8713	 
   519	 1.6439	-5.1073	-43.2824	86.1510	-9.7560	11.9987	 
   520	 1.4581	-5.0753	34.7203	12.2178	-9.5193	12.2112	 
   521	 1.4310	-4.8765	34.7203	12.2178	-8.6716	12.6478	 
   522	 2.1395	-4.9538	34.7203	12.2178	-6.7998	13.3436	 
   523	 2.4376	-4.9903	34.7203	12.2178	-5.9134	13.8034	 
   524	 2.4532	-4.6943	-6.7120	72.6471	-5.6379	14.0390	 
   525	 2.1977	-4.5607	34.7203	12.2178	-5.1732	14.3172	 
   526	 2.3022	-4.7131	-6.7120	72.6471	-5.1001	14.2902	 
   527	 2.0815	-4.6302	-1.8501	25.7217	-5.5562	14.1588	 
   528	 1.8879	-4.7462	34.7203	12.2178	-4.1663	14.9200	 
   529	 1.7369	-4.7650	-6.7120	72.6471	-2.7160	16.0712	 
   530	 1.8492	-4.7694	34.7203	12.2178	-2.1694	17.1063	 
   531	 1.9924	-4.8986	34.7203	12.2178	-2.0961	17.7165	 
   532	 1.9498	-4.9958	-6.7120	72.6471	-2.2897	18.2378	 
   533	 1.7678	-4.8898	34.7203	12.2178	-2.6208	18.9598	 
   534	 1.5472	-4.8069	34.7203	12.2178	-2.9951	19.5853	 
   535	 1.6865	-5.0101	34.7203	12.2178	-4.1438	19.7471	 
   536	 1.5046	-4.9041	-1.8501	25.7217	-5.7187	19.6539	 
   537	 1.4775	-4.7053	34.7203	12.2178	-6.9276	20.0628	 
   538	 1.3730	-4.5529	34.7203	12.2178	-8.4422	19.7225	 
   539	 1.0981	-4.7892	34.7203	12.2178	-9.6772	19.0540	 
   540	 0.9432	-4.8820	-1.8501	25.7217	-10.6626	18.8181	 
   541	 0.9897	-4.7108	34.7203	12.2178	-10.6712	18.6714	 
   542	 1.7330	-4.8389	-1.8501	25.7217	-10.4174	18.5402	 
   543	 1.6246	-4.7605	34.7203	12.2178	-10.5595	18.0304	 
   544	 1.6207	-4.8345	34.7203	12.2178	-10.9812	17.8488	 
   545	 1.4775	-4.7053	-1.8501	25.7217	-11.4803	17.6208	 
   546	 1.1446	-4.6180	-43.2824	86.1510	-12.0483	17.4931	 
   547	 1.0013	-4.4888	-1.8501	25.7217	-12.6593	17.2690	 
   548	 0.9587	-4.5860	-1.8501	25.7217	-13.0079	17.0603	 
   549	 0.9239	-4.5352	-1.8501	25.7217	-13.0165	16.9136	 
   550	 0.8891	-4.4844	-1.8501	25.7217	-12.9434	16.8866	 
   551	 0.7846	-4.3320	-1.8501	25.7217	-12.9735	17.0101	 
   552	 0.5639	-4.2491	-1.8501	25.7217	-13.2790	16.8980	 
   553	 0.4129	-4.2679	-1.8501	25.7217	-13.4640	16.9289	 
   554	 0.1070	-4.3794	-1.8501	25.7217	-13.6620	16.7396	 
   555	-0.1098	-4.2226	-1.8501	25.7217	-13.9718	16.5541	 
   556	-0.1098	-4.2226	-1.8501	25.7217	-14.0923	16.4112	 
   557	-0.2917	-4.1166	-1.8501	25.7217	-14.3160	16.4189	 
   558	-0.3692	-4.1630	-1.8501	25.7217	-14.2515	16.2451	 
   559	-0.2221	-4.2182	-1.8501	25.7217	-14.2601	16.0984	 
   560	 0.0103	-4.0790	-1.8501	25.7217	-13.5846	16.1488	 
   561	 0.6684	-4.4016	-1.8501	25.7217	-12.8660	16.2958	 
   562	 0.4942	-4.1475	-1.8501	25.7217	-12.7284	16.0950	 
   563	 0.5291	-4.1983	34.7203	12.2178	-13.4556	15.8013	 
   564	 0.2271	-4.2359	-1.8501	25.7217	-14.4625	15.1985	 
   565	 0.3316	-4.3883	-30.1555	36.1737	-15.1553	14.8546	 
   566	 0.3742	-4.2911	-1.8501	25.7217	-15.5254	14.9163	 
   567	-0.0942	-3.9266	-1.8501	25.7217	-15.3403	14.8854	 
   568	 0.3084	-4.1155	-1.8501	25.7217	-15.2930	15.0554	 
   569	 0.0181	-3.9310	-1.8501	25.7217	-15.2973	14.9820	 
   570	 0.0607	-3.8339	22.3761	-9.6124	-15.5985	14.9433	 
   571	-0.1213	-3.7278	-1.8501	25.7217	-15.9728	14.9316	 
   572	 0.0181	-3.9310	-1.8501	25.7217	-16.0072	14.9818	 
   573	-0.0864	-3.7786	-30.1555	36.1737	-16.1578	14.9624	 
   574	-0.1174	-3.6538	-1.8501	25.7217	-16.2611	15.1130	 
   575	-0.1909	-3.6262	22.3761	-9.6124	-16.3041	15.0164	 
   576	-0.2297	-3.6494	-1.8501	25.7217	-16.3816	14.9700	 
   577	-0.5936	-3.4373	-1.8501	25.7217	-16.6785	15.0047	 
   578	-0.0748	-3.5566	-1.8501	25.7217	-16.1191	14.9856	 
   579	 0.5950	-3.6572	-1.8501	25.7217	-15.1381	15.1481	 
   580	 0.4905	-3.5048	-1.8501	25.7217	-14.6261	14.9590	 
   581	 0.5253	-3.5556	-5.9294	 0.8396	-14.6605	15.0092	 
   582	 0.3473	-3.3755	22.3761	-9.6124	-14.8799	15.0903	 
   583	 0.1963	-3.3943	-1.8501	25.7217	-15.0736	14.9743	 
   584	 0.1227	-3.3667	-1.8501	25.7217	-15.1898	14.9048	 
   585	 0.2660	-3.4959	-1.8501	25.7217	-15.2242	14.9550	 
   586	 0.0260	-3.0663	-1.8501	25.7217	-15.0047	14.8740	 
   587	 0.0221	-3.1403	-5.9294	 0.8396	-15.0004	14.9473	 
   588	 0.3821	-3.4263	-1.8501	25.7217	-15.1123	14.9512	 
   589	 0.2002	-3.3203	34.7203	12.2178	-15.3103	14.7619	 
   590	-0.0902	-3.1359	-1.8501	25.7217	-15.6459	14.7733	 
   591	-0.0475	-3.0387	-1.8501	25.7217	-15.8008	14.6806	 
   592	-0.0514	-3.1127	-1.8501	25.7217	-16.0719	14.5183	 
   593	-0.1559	-2.9603	-1.8501	25.7217	-16.2612	14.4758	 
   594	-0.3418	-2.9282	-1.8501	25.7217	-16.4118	14.4564	 
   595	-0.1250	-3.0851	34.7203	12.2178	-16.5624	14.4371	 
   596	-0.0824	-2.9879	-1.8501	25.7217	-16.1149	14.4218	 
   597	 0.5177	-2.9868	-1.8501	25.7217	-15.5082	14.5726	 
   598	 0.7462	-2.9216	-1.8501	25.7217	-15.3275	14.4684	 
   599	 0.8546	-3.0001	-1.8501	25.7217	-15.6761	14.2597	 
   600	 0.6300	-2.9912	-1.8501	25.7217	-16.0590	14.1013	 
   601	 0.5952	-2.9404	-30.1555	36.1737	-16.3990	14.0394	 
   602	 0.3358	-2.8808	-1.8501	25.7217	-16.5582	13.8733	 
   603	 0.4093	-2.9084	22.3761	-9.6124	-16.4420	13.9428	 
   604	 0.5216	-2.9128	-1.8501	25.7217	-16.3301	13.9390	 
   605	 0.6765	-2.8200	-1.8501	25.7217	-16.4463	13.8695	 
   606	 0.6921	-2.5241	-1.8501	25.7217	-16.0849	13.6610	 
   607	 0.9322	-2.2369	-1.8501	25.7217	-15.0823	14.1904	 
   608	 0.9400	-2.0889	-1.8501	25.7217	-14.5488	14.3682	 
   609	 1.0639	-1.8714	22.3761	-9.6124	-14.8629	14.1094	 
   610	 1.0330	-1.7466	-1.8501	25.7217	-14.5143	14.3180	 
   611	 1.2034	-1.3578	-1.8501	25.7217	-13.5332	15.1177	 
   612	 1.3313	-1.0663	34.7203	12.2178	-12.5994	15.7475	 
   613	 1.5558	-1.0751	34.7203	12.2178	-12.5219	15.7938	 
   614	 1.4706	-1.2695	-1.8501	25.7217	-12.4359	15.3498	 
   615	 1.9468	-1.4860	34.7203	12.2178	-11.5194	15.6860	 
   616	 2.2023	-1.6196	-1.8501	25.7217	-11.4205	15.4621	 
   617	 2.0435	-1.7864	34.7203	12.2178	-12.3371	14.4887	 
   618	 1.7802	-1.8007	34.7203	12.2178	-12.7073	13.9132	 
   619	 1.7337	-1.9719	-1.8501	25.7217	-12.3200	14.1450	 
   620	 1.5673	-1.5699	-1.8501	25.7217	-12.1005	14.7011	 
   621	 2.0513	-1.6384	-1.8501	25.7217	-11.4206	14.8249	 
   622	 2.0939	-1.5412	34.7203	12.2178	-10.8311	15.3194	 
   623	 2.3803	-1.7996	-1.8501	25.7217	-10.2975	15.4972	 
   624	 2.4190	-1.7764	34.7203	12.2178	-10.1082	15.5398	 
   625	 2.4461	-1.9752	-6.7120	72.6471	-10.2243	15.4702	 
   626	 2.1945	-1.7676	34.7203	12.2178	-10.5212	15.5049	 
   627	 2.1287	-1.5920	34.7203	12.2178	-10.6116	15.2384	 
   628	 2.0513	-1.6384	34.7203	12.2178	-11.2313	14.8675	 
   629	 1.9042	-1.5831	34.7203	12.2178	-12.0145	14.2571	 
   630	 1.7570	-1.5279	-1.8501	25.7217	-12.7245	13.6197	 
   631	 2.0203	-1.5136	-43.2824	86.1510	-13.9295	12.8276	 
   632	 2.2527	-1.3744	-1.8501	25.7217	-14.7427	12.3408	 
   633	 2.6708	-1.2673	-1.8501	25.7217	-14.0328	12.3410	 
   634	 2.9767	-1.1558	34.7203	12.2178	-13.7875	12.7002	 
   635	 3.2283	-1.3634	34.7203	12.2178	-13.9467	12.5341	 
   636	 2.9341	-1.2530	22.3761	-9.6124	-14.5320	12.1130	 
   637	 2.8218	-1.2485	-1.8501	25.7217	-15.2075	12.0626	 
   638	 2.6399	-1.1425	-43.2824	86.1510	-15.3925	12.0934	 
   639	 2.7561	-1.0729	-1.8501	25.7217	-15.8012	12.1319	 
   640	 2.5276	-1.1381	-1.8501	25.7217	-16.2186	12.0236	 
   641	 2.7444	-1.2949	-1.8501	25.7217	-17.1265	11.8341	 
   642	 2.8606	-1.2254	-1.8501	25.7217	-18.0775	11.5481	 
   643	 2.3844	-1.0089	22.3761	-9.6124	-19.1016	11.2890	 
   644	 2.4928	-1.0873	22.3761	-9.6124	-19.9406	10.9991	 
   645	 2.3030	-1.1292	-1.8501	25.7217	-20.5001	10.3810	 
   646	 2.3649	-1.3788	22.3761	-9.6124	-21.1025	10.3036	 
   647	 2.0320	-1.2916	-30.1555	36.1737	-21.2918	10.2611	 
   648	 2.1365	-1.4440	22.3761	-9.6124	-21.5285	10.0486	 
   649	 1.9275	-1.1392	-1.8501	25.7217	-21.5415	 9.8285	 
   650	 2.3069	-1.0553	-30.1555	36.1737	-20.6422	 9.8712	 
   651	 2.7173	-1.0961	-1.8501	25.7217	-19.2094	10.0918	 
   652	 3.3174	-1.0951	22.3761	-9.6124	-18.3015	10.2814	 
   653	 3.1046	-0.8642	-1.8501	25.7217	-18.1552	10.2273	 
   654	 3.0619	-0.9614	-30.1555	36.1737	-18.3789	10.2350	 
   655	 2.7948	-1.0498	-1.8501	25.7217	-18.6199	 9.9491	 
   656	 2.7251	-0.9481	22.3761	-9.6124	-18.6285	 9.8024	 
   657	 2.7212	-1.0221	-1.8501	25.7217	-18.6199	 9.9491	 
   658	 2.7831	-1.2717	22.3761	-9.6124	-18.4005	 9.8681	 
   659	 2.7483	-1.2209	-1.8501	25.7217	-18.3360	 9.6944	 
   660	 2.7173	-1.0961	34.7203	12.2178	-18.6285	 9.8024	 
   661	 2.6747	-1.1933	-30.1555	36.1737	-18.9642	 9.8139	 
   662	 2.3766	-1.1569	-1.8501	25.7217	-19.3084	 9.6786	 
   663	 2.7405	-1.3689	-1.8501	25.7217	-19.5795	 9.5163	 
   664	 2.4424	-1.3325	22.3761	-9.6124	-19.8420	 9.5008	 
   665	 2.4889	-1.1613	22.3761	-9.6124	-20.0657	 9.5084	 
   666	 2.7444	-1.2949	-1.8501	25.7217	-19.4676	 9.5125	 
   667	 3.1587	-1.2618	-30.1555	36.1737	-18.5296	 9.5785	 
   668	 3.5264	-1.3999	-30.1555	36.1737	-18.1897	 9.6403	 
   669	 3.3174	-1.0951	-30.1555	36.1737	-18.4565	 9.5514	 
   670	 3.0890	-1.1602	-1.8501	25.7217	-18.9083	 9.4934	 
   671	 2.9767	-1.1558	-30.1555	36.1737	-19.3257	 9.3851	 
   672	 3.0929	-1.0862	-1.8501	25.7217	-19.5537	 9.3194	 
   673	 2.9497	-0.9570	-5.9294	 0.8396	-19.3730	 9.2152	 
   674	 3.2013	-1.1646	-1.8501	25.7217	-19.3773	 9.1418	 
   675	 2.9536	-0.8830	22.3761	-9.6124	-19.4161	 9.1186	 
   676	 3.2052	-1.0906	22.3761	-9.6124	-19.4591	 9.0221	 
   677	 2.9884	-0.9338	-30.1555	36.1737	-19.6528	 8.9062	 
   678	 2.9845	-1.0078	-30.1555	36.1737	-19.8077	 8.8134	 
   679	 3.0619	-0.9614	22.3761	-9.6124	-19.9540	 8.8674	 
   680	 2.7368	-0.7262	22.3761	-9.6124	-20.1089	 8.7747	 
   681	 2.7329	-0.8002	-5.9294	 0.8396	-20.0013	 8.6975	 
   682	 3.3330	-0.7991	22.3761	-9.6124	-18.9945	 8.6631	 
   683	 4.0841	-0.7792	22.3761	-9.6124	-18.1426	 8.5359	 
   684	 4.0145	-0.6776	-1.8501	25.7217	-18.0738	 8.4355	 
   685	 3.8325	-0.5716	22.3761	-9.6124	-18.4825	 8.4740	 
   686	 3.7202	-0.5672	22.3761	-9.6124	-18.7019	 8.5551	 
   687	 3.5461	-0.3131	22.3761	-9.6124	-18.8869	 8.5859	 
   688	 3.7977	-0.5208	-1.8501	25.7217	-19.0719	 8.6167	 
   689	 3.6196	-0.3408	-5.9294	 0.8396	-18.8224	 8.4121	 
   690	 3.8132	-0.2248	-5.9294	 0.8396	-18.7106	 8.4083	 
   691	 4.0030	-0.1828	-5.9294	 0.8396	-18.5643	 8.3543	 
   692	 3.9991	-0.2568	-30.1555	36.1737	-18.7493	 8.3851	 
   693	 3.8210	-0.0768	-30.1555	36.1737	-18.7149	 8.3349	 
   694	 3.9333	-0.0812	-1.8501	25.7217	-18.5686	 8.2809	 
   695	 3.9333	-0.0812	22.3761	-9.6124	-18.6331	 8.4547	 
   696	 3.7436	-0.1232	-1.8501	25.7217	-18.5470	 8.6478	 
   697	 3.7397	-0.1972	-5.9294	 0.8396	-18.0909	 8.7792	 
   698	 4.1617	-0.0161	-30.1555	36.1737	-16.9593	 8.9611	 
   699	 4.7115	-0.2602	-1.8501	25.7217	-16.2407	 9.1081	 
   700	 4.5992	-0.2558	-30.1555	36.1737	-16.1331	 9.0309	 
   701	 4.5295	-0.1541	22.3761	-9.6124	-16.2880	 8.9381	 
   702	 4.6109	-0.0338	22.3761	-9.6124	-16.4042	 8.8686	 
   703	 4.5064	 0.1186	22.3761	-9.6124	-16.5591	 8.7759	 
   704	 4.2509	 0.2523	-30.1555	36.1737	-16.5291	 8.6523	 
   705	 4.6535	 0.0634	22.3761	-9.6124	-16.3828	 8.5983	 
   706	 4.3980	 0.1971	-1.8501	25.7217	-16.3871	 8.5249	 
   707	 4.5799	 0.0910	-5.9294	 0.8396	-16.4645	 8.4786	 
   708	 4.4367	 0.2203	-5.9294	 0.8396	-16.6238	 8.3124	 
   709	 4.1502	 0.4787	22.3761	-9.6124	-16.8862	 8.2969	 
   710	 4.1076	 0.3815	-5.9294	 0.8396	-16.8605	 8.1000	 
   711	 4.3283	 0.2987	-1.8501	25.7217	-17.0455	 8.1308	 
   712	 4.2896	 0.2755	-5.9294	 0.8396	-16.9465	 7.9069	 
   713	 4.3283	 0.2987	-30.1555	36.1737	-17.1316	 7.9377	 
   714	 4.2974	 0.4235	-5.9294	 0.8396	-17.0971	 7.8875	 
   715	 4.4754	 0.2434	-30.1555	36.1737	-16.6410	 8.0190	 
   716	 4.6381	 0.4842	22.3761	-9.6124	-15.5912	 8.0811	 
   717	 4.9362	 0.4477	-1.8501	25.7217	-15.1394	 8.1392	 
   718	 4.9401	 0.5217	22.3761	-9.6124	-15.1136	 7.9422	 
   719	 5.0833	 0.3925	-30.1555	36.1737	-15.3373	 7.9499	 
   720	 4.8317	 0.6002	-1.8501	25.7217	-15.4535	 7.8803	 
   721	 4.7969	 0.6510	22.3761	-9.6124	-15.4578	 7.8069	 
   722	 5.0098	 0.4201	-5.9294	 0.8396	-15.4578	 7.8069	 
   723	 5.0485	 0.4433	-1.8501	25.7217	-15.1997	 7.7491	 
   724	 4.8085	 0.8729	-1.8501	25.7217	-15.2255	 7.9460	 
   725	 5.3003	 0.9524	-1.8501	25.7217	-15.0275	 8.1353	 
   726	 5.4166	 1.7388	-1.8501	25.7217	-14.6359	 8.4405	 
   727	 6.9153	 3.1380	-1.8501	25.7217	-14.0980	 8.6917	 
   728	 8.7897	 5.2639	-1.8501	25.7217	-13.6634	 9.0935	 
   729	11.3376	 6.6465	-1.8501	25.7217	-13.1513	 9.5416	 
   730	12.8248	 8.5406	-43.2824	86.1510	-12.6133	10.4300	 
   731	14.6489	10.4213	34.7203	12.2178	-11.5931	12.5272	 
   732	16.7206	12.0204	34.7203	12.2178	-11.5153	14.4851	 
   733	18.0761	13.5488	86.2113	-6.7956	-14.5919	13.6345	 
   734	19.2804	14.3418	44.7790	53.6337	-17.8150	11.5636	 
   735	20.2253	15.1943	86.2113	-6.7956	-20.1173	 9.9023	 
   736	20.5662	15.9718	44.7790	53.6337	-22.0925	 8.0828	 
   737	21.0696	16.2733	86.2113	-6.7956	-22.3037	 6.3991	 
   738	21.3638	16.1629	44.7790	53.6337	-22.3856	 5.6421	 
   739	20.6785	15.9674	86.2113	-6.7956	-21.9251	 5.8470	 
   740	19.5322	14.8509	86.2113	-6.7956	-21.0086	 6.1832	 
   741	18.1613	13.7432	44.7790	53.6337	-18.4698	 7.4198	 
   742	17.0771	13.0939	-6.7120	72.6471	-15.4146	 9.1779	 
   743	16.7362	12.3164	44.7790	53.6337	-13.5212	10.2404	 
   744	16.5270	11.9044	44.7790	53.6337	-12.6691	10.7505	 
   745	16.5231	11.8304	-6.7120	72.6471	-12.0839	11.1716	 
   746	16.6741	11.8492	86.2113	-6.7956	-11.5417	11.4961	 
   747	16.4922	11.9552	86.2113	-6.7956	-11.4169	11.7124	 
   748	16.2676	11.9641	-6.7120	72.6471	-11.1845	11.8515	 
   749	16.4301	11.4881	-6.7120	72.6471	-11.0683	11.9211	 
   750	16.3179	11.4925	-6.7120	72.6471	-10.7972	12.0833	 
   751	16.2365	11.3721	34.7203	12.2178	-10.1819	12.3809	 
   752	15.7603	11.5886	-6.7120	72.6471	-9.1148	12.7365	 
   753	15.9771	11.4318	44.7790	53.6337	-8.4650	12.9839	 
   754	16.0158	11.4550	34.7203	12.2178	-8.0132	13.0420	 
   755	16.1320	11.5245	44.7790	53.6337	-7.9659	13.2119	 
   756	16.0933	11.5014	-6.7120	72.6471	-8.1208	13.1192	 
   757	16.0546	11.4782	86.2113	-6.7956	-7.8970	13.1115	 
   758	15.9540	11.7046	44.7790	53.6337	-7.0666	13.2547	 
   759	16.0855	11.3534	44.7790	53.6337	-6.7654	13.2934	 
   760	16.1900	11.2009	-6.7120	72.6471	-7.1397	13.2817	 
   761	16.2867	10.9005	86.2113	-6.7956	-7.3721	13.1426	 
   762	16.0700	11.0574	86.2113	-6.7956	-7.6389	13.0537	 
   763	16.2441	10.8034	-6.7120	72.6471	-7.8282	13.0111	 
   764	15.8841	11.0894	44.7790	53.6337	-7.9401	13.0149	 
   765	16.3486	10.6509	-6.7120	72.6471	-7.8325	12.9377	 
   766	16.2790	10.7525	44.7790	53.6337	-7.9530	12.7948	 
   767	15.9808	10.7890	86.2113	-6.7956	-8.1811	12.7291	 
   768	15.9770	10.7150	44.7790	53.6337	-8.1553	12.5322	 
   769	15.6827	10.8255	44.7790	53.6337	-8.3747	12.6132	 
   770	15.8337	10.8442	44.7790	53.6337	-8.3360	12.6364	 
   771	15.6170	11.0011	44.7790	53.6337	-8.4479	12.6402	 
   772	15.7214	10.8487	34.7203	12.2178	-8.4479	12.6402	 
   773	15.7602	10.8718	34.7203	12.2178	-8.5167	12.7406	 
   774	15.9382	10.6918	44.7790	53.6337	-8.5210	12.6672	 
   775	15.7524	10.7239	-6.7120	72.6471	-8.7792	12.7250	 
   776	15.7833	10.5991	-6.7120	72.6471	-8.5167	12.7406	 
   777	15.9923	10.2942	-6.7120	72.6471	-7.4969	12.9263	 
   778	15.7135	 9.9839	44.7790	53.6337	-6.6321	13.0192	 
   779	15.2564	 9.1368	-6.7120	72.6471	-6.0942	13.2704	 
   780	14.0366	 8.0479	86.2113	-6.7956	-5.1604	13.9002	 
   781	12.8981	 7.0794	44.7790	53.6337	-3.8135	14.5648	 
   782	11.8835	 6.3285	34.7203	12.2178	-2.4967	15.3530	 
   783	11.0160	 5.5223	34.7203	12.2178	-1.4855	16.0292	 
   784	10.2764	 5.0076	44.7790	53.6337	-0.8099	16.0796	 
   785	10.1639	 4.2953	86.2113	-6.7956	-0.8703	15.6895	 
   786	 9.3547	 3.8823	34.7203	12.2178	-0.8832	15.4694	 
   787	 8.9673	 2.9336	86.2113	-6.7956	-1.1370	15.6006	 
   788	 8.2702	 2.5162	34.7203	12.2178	-1.3479	15.1912	 
   789	 7.6507	 2.1451	34.7203	12.2178	-1.5502	14.9286	 
   790	 6.6517	 1.6901	-6.7120	72.6471	-1.9289	14.8435	 
   791	 6.2411	 1.0143	34.7203	12.2178	-1.7138	14.6891	 
   792	 5.8887	 0.7315	34.7203	12.2178	-2.0580	14.5538	 
   793	 5.2073	 0.6101	-6.7120	72.6471	-2.4496	14.2486	 
   794	 5.3349	 0.1849	34.7203	12.2178	-2.5271	14.2023	 
   795	 5.1917	 0.3141	34.7203	12.2178	-1.8128	14.2759	 
   796	 5.5673	 0.3240	34.7203	12.2178	-0.6554	14.2608	 
   797	 6.0783	 0.0567	-6.7120	72.6471	-0.3499	14.3729	 
   798	 5.8963	 0.1628	86.2113	-6.7956	-0.3111	14.3961	 
   799	 5.8228	 0.1904	34.7203	12.2178	-0.5736	14.3805	 
   800	 5.6949	-0.1012	-6.7120	72.6471	-0.9007	13.9016	 
   801	 5.6175	-0.1476	34.7203	12.2178	-1.4644	13.8473	 
   802	 5.3542	-0.1619	34.7203	12.2178	-1.5117	13.6774	 
   803	 5.5361	-0.2679	34.7203	12.2178	-1.6623	13.6580	 
   804	 5.3968	-0.0647	34.7203	12.2178	-1.6666	13.5847	 
   805	 5.3155	-0.1851	34.7203	12.2178	-1.9678	13.5459	 
   806	 5.4316	-0.1155	34.7203	12.2178	-2.1228	13.4532	 
   807	 5.2380	-0.2315	-6.7120	72.6471	-2.3164	13.3373	 
   808	 5.0600	-0.0515	-6.7120	72.6471	-2.5100	13.2214	 
   809	 5.3813	-0.3607	-6.7120	72.6471	-2.6606	13.2020	 
   810	 5.2729	-0.2823	34.7203	12.2178	-2.6994	13.1789	 
   811	 4.9129	 0.0038	44.7790	53.6337	-2.7424	13.0823	 
   812	 4.8315	-0.1166	34.7203	12.2178	-2.8973	12.9896	 
   813	 4.7541	-0.1630	34.7203	12.2178	-3.1598	12.9740	 
   814	 4.7580	-0.0890	-1.8501	25.7217	-3.3448	13.0049	 
   815	 4.9399	-0.1950	34.7203	12.2178	-2.8973	12.9896	 
   816	 5.2032	-0.1807	34.7203	12.2178	-1.8905	12.9551	 
   817	 5.4974	-0.2911	58.9464	-23.1163	-1.4774	12.9900	 
   818	 5.9000	-0.4800	44.7790	53.6337	-1.6194	13.1174	 
   819	 5.5400	-0.1939	34.7203	12.2178	-1.6969	13.0711	 
   820	 5.6406	-0.4204	-6.7120	72.6471	-1.7399	12.9745	 
   821	 5.3890	-0.2127	34.7203	12.2178	-1.9981	13.0323	 
   822	 5.6058	-0.3696	34.7203	12.2178	-1.9636	12.9821	 
   823	 5.3890	-0.2127	34.7203	12.2178	-1.8948	12.8818	 
   824	 5.4239	-0.2635	34.7203	12.2178	-1.9723	12.8354	 
   825	 5.5323	-0.3419	-6.7120	72.6471	-2.1616	12.7929	 
   826	 5.4665	-0.1663	-6.7120	72.6471	-2.2003	12.7697	 
   827	 5.5013	-0.2171	-6.7120	72.6471	-2.4284	12.7040	 
   828	 5.3542	-0.1619	34.7203	12.2178	-2.5446	12.6344	 
   829	 5.2768	-0.2083	34.7203	12.2178	-2.5532	12.4877	 
   830	 5.2419	-0.1575	-6.7120	72.6471	-2.8458	12.5957	 
   831	 5.0213	-0.0746	34.7203	12.2178	-2.8501	12.5223	 
   832	 4.9477	-0.0470	34.7203	12.2178	-2.9964	12.5763	 
   833	 5.1258	-0.2271	34.7203	12.2178	-3.1125	12.5068	 
   834	 5.1606	-0.2779	-6.7120	72.6471	-3.2287	12.4372	 
   835	 4.7928	-0.1398	34.7203	12.2178	-3.4181	12.3947	 
   836	 4.8354	-0.0426	-1.8501	25.7217	-3.5687	12.3753	 
   837	 5.0483	-0.2734	34.7203	12.2178	-3.6805	12.3792	 
   838	 5.2845	-0.0603	34.7203	12.2178	-2.9706	12.3794	 
   839	 5.6523	-0.1984	34.7203	12.2178	-1.9164	12.5149	 
   840	 5.8072	-0.1056	34.7203	12.2178	-1.6496	12.6038	 
   841	 5.9543	-0.1608	34.7203	12.2178	-1.7615	12.6076	 
   842	 5.6214	-0.0736	-6.7120	72.6471	-1.9164	12.5149	 
   843	 5.7298	-0.1520	86.2113	-6.7956	-2.2133	12.5496	 
   844	 5.6291	 0.0744	-6.7120	72.6471	-2.2520	12.5264	 
   845	 5.8033	-0.1796	-43.2824	86.1510	-2.2864	12.5766	 
   846	 5.5169	 0.0788	34.7203	12.2178	-2.0756	12.3488	 
   847	 5.6988	-0.0272	-6.7120	72.6471	-2.2219	12.4028	 
   848	 5.4859	 0.2036	34.7203	12.2178	-2.2606	12.3796	 
   849	 5.5982	 0.1992	-43.2824	86.1510	-2.3338	12.4066	 
   850	 6.0049	 0.8011	34.7203	12.2178	-2.3338	12.4066	 
   851	 7.4841	 1.8304	-6.7120	72.6471	-2.3338	12.4066	 
   852	 8.7970	 3.2616	34.7203	12.2178	-1.9852	12.6153	 
   853	10.0129	 4.2765	-6.7120	72.6471	-1.6839	13.2912	 
   854	11.1980	 5.4162	86.2113	-6.7956	-1.8430	13.7622	 
   855	12.7120	 6.3947	-6.7120	72.6471	-2.3464	14.0980	 
   856	14.3695	 7.9607	86.2113	-6.7956	-4.5106	14.1475	 
   857	15.9999	 9.7255	132.8404	21.1163	-8.9813	13.0996	 
   858	17.4677	11.2495	44.7790	53.6337	-14.0718	11.0435	 
   859	18.2925	11.9585	44.7790	53.6337	-17.2088	 9.1657	 
   860	18.0178	12.4389	-6.7120	72.6471	-15.3803	 8.4905	 
   861	16.6124	12.8156	-6.7120	72.6471	-3.9046	10.4753	 
   862	13.9482	10.6466	22.3761	-9.6124	-2.4641	 5.7452	 
   863	 9.4326	 6.0790	-5.9294	 0.8396	-7.3788	 0.3257	 
   864	 5.2385	 1.9188	-29.1150	 9.4011	-12.3665	-4.4297	 
   865	 4.5106	 1.6262	-11.9089	-15.6942	-20.4140	-12.2908	 
   866	 6.7682	 3.1932	-31.5106	-8.4561	-27.0882	-16.4984	 
   867	 4.9136	 2.8708	-35.1617	-21.6140	-31.1933	-18.3186	 
   868	 2.4158	 1.0166	-24.2530	-37.5244	-34.4508	-20.3393	 
   869	 1.2462	-0.5439	-24.2530	-37.5244	-37.0199	-22.0895	 
   870	 1.3505	-1.4130	-35.1617	-21.6140	-38.9478	-23.7390	 
   871	 1.3930	-2.0326	-24.2530	-37.5244	-40.0925	-24.7782	 
   872	 1.6135	-2.8322	-39.2469	-31.9878	-41.2543	-25.4737	 
   873	 1.6211	-3.4010	-24.2530	-37.5244	-41.8568	-26.1883	 
   874	 1.3074	-3.6605	-24.2530	-37.5244	-42.3776	-26.7831	 
   875	 1.0712	-3.8737	-39.2469	-31.9878	-42.8983	-27.3780	 
   876	 0.4438	-4.3927	-24.2530	-37.5244	-43.6127	-28.0888	 
   877	-0.0286	-4.8190	-50.1555	-16.0774	-44.3228	-28.7262	 
   878	-0.2997	-4.9813	-39.2469	-31.9878	-45.1447	-29.3598	 
   879	-0.5630	-4.9957	-35.1617	-21.6140	-46.0871	-30.1363	 
   880	-0.0325	-4.8930	-50.1555	-16.0774	-46.8790	-30.8934	 
   881	 0.6451	-4.8455	-35.1617	-21.6140	-47.6020	-31.7510	 
   882	 0.8928	-5.1272	-35.1617	-21.6140	-48.2045	-32.4656	 
   883	-0.2378	-5.2309	-50.1555	-16.0774	-48.1787	-32.6625	 
   884	-0.9504	-5.9444	-35.1617	-21.6140	-48.2475	-32.5621	 
   885	-2.5456	-6.3264	-24.2530	-37.5244	-48.0625	-32.5930	 
   886	-3.8312	-7.2397	-39.2469	-31.9878	-48.0582	-32.5196	 
   887	-4.5399	-7.8791	-24.2530	-37.5244	-48.2088	-32.5389	 
   888	-5.2214	-8.0006	-35.1617	-21.6140	-48.0625	-32.5930	 
   889	-5.9493	-8.2932	-35.1617	-21.6140	-48.1012	-32.6161	 
   890	-6.9291	-9.0950	-24.2530	-37.5244	-48.1400	-32.6393	 
   891	-7.8971	-9.6748	-24.2530	-37.5244	-48.2475	-32.5621	 
   892	-8.9232	-9.9310	-35.1617	-21.6140	-48.2045	-32.4656	 
   893	-9.6589	-10.3716	-35.1617	-21.6140	-48.0625	-32.5930	 
   894	-10.5108	-10.8818	-35.1617	-21.6140	-48.3207	-32.5351	 
   895	-11.1226	-11.1048	-24.2530	-37.5244	-48.3551	-32.4849	 
   896	-11.1769	-11.4240	-35.1617	-21.6140	-48.3250	-32.6085	 
   897	-11.1383	-12.1176	-35.1617	-21.6140	-48.0710	-32.1025	 
   898	-11.2547	-12.9039	-35.1617	-21.6140	-46.4959	-30.0978	 
   899	-12.9629	-16.1486	-48.4792	-2.1903	-43.1435	-27.1000	 
   900	-12.9712	-18.4469	-31.5106	-8.4561	-40.6819	-24.6355	 
   901	-12.0304	-18.3851	-31.5106	-8.4561	-37.1357	-20.2475	 
   902	-11.2831	-18.4393	-29.1150	 9.4011	-29.7119	-11.5563	 
   903	-10.3962	-17.2631	-1.8501	25.7217	-21.0309	 1.9933	 
   904	-8.6963	-16.3167	-1.8501	25.7217	-18.9645	 7.9023	 
   905	-7.7942	-16.2781	-1.8501	25.7217	-17.3507	 9.2931	 
   906	-8.2551	-17.1991	34.7203	12.2178	-15.2638	 9.8344	 
   907	-9.2039	-18.1257	34.7203	12.2178	-13.9256	10.3523	 
   908	-9.8544	-18.3719	-43.2824	86.1510	-13.0048	10.7619	 
   909	-10.3656	-18.8214	34.7203	12.2178	-12.3808	11.2062	 
   910	-10.7799	-18.8545	-6.7120	72.6471	-11.7955	11.6273	 
   911	-11.1167	-18.8413	34.7203	12.2178	-11.5331	11.6429	 
   912	-11.3839	-18.9296	34.7203	12.2178	-11.5934	11.2528	 
   913	-10.8729	-19.1969	-1.8501	25.7217	-11.2234	11.1912	 
   914	-10.5438	-19.3582	34.7203	12.2178	-10.1821	11.1065	 
   915	-10.4703	-19.3858	-43.2824	86.1510	-9.8939	10.9251	 
   916	-10.5516	-19.5062	34.7203	12.2178	-10.0101	10.8556	 
   917	-10.5672	-19.8021	-1.8501	25.7217	-10.2252	11.0100	 
   918	-10.8731	-19.9137	34.7203	12.2178	-10.5177	11.1180	 
   919	-11.1015	-19.9788	-1.8501	25.7217	-10.6984	11.2222	 
   920	-11.5468	-19.8871	-1.8501	25.7217	-10.6984	11.2222	 
   921	-11.7094	-20.1279	-43.2824	86.1510	-10.5608	11.0215	 
   922	-11.9340	-20.1190	-1.8501	25.7217	-10.6770	10.9519	 
   923	-12.0463	-20.1146	34.7203	12.2178	-11.0169	10.8900	 
   924	-12.1315	-20.3090	-1.8501	25.7217	-11.6537	10.8628	 
   925	-12.3948	-20.3233	-1.8501	25.7217	-11.7355	10.7430	 
   926	-12.4683	-20.2957	-1.8501	25.7217	-11.7311	10.8164	 
   927	-12.5458	-20.3421	-1.8501	25.7217	-11.5892	10.6890	 
   928	-12.7664	-20.2593	34.7203	12.2178	-11.6666	10.6427	 
   929	-12.7316	-20.3101	22.3761	-9.6124	-11.8904	10.6503	 
   930	-12.1354	-20.3830	-1.8501	25.7217	-11.3654	10.6814	 
   931	-11.8217	-20.1235	34.7203	12.2178	-10.5006	10.7743	 
   932	-11.5197	-20.0859	-1.8501	25.7217	-10.0832	10.8826	 
   933	-11.5197	-20.0859	-1.8501	25.7217	-9.8982	10.8518	 
   934	-11.3339	-20.1180	-1.8501	25.7217	-9.9757	10.8054	 
   935	-11.3261	-19.9700	34.7203	12.2178	-10.1005	10.5891	 
   936	-11.2216	-20.1224	-43.2824	86.1510	-10.3629	10.5736	 
   937	-11.1867	-20.1732	-1.8501	25.7217	-10.3543	10.7203	 
   938	-11.1829	-20.0992	34.7203	12.2178	-10.1306	10.7127	 
   939	-11.2525	-19.9976	-6.7120	72.6471	-10.1650	10.7629	 
   940	-11.3648	-19.9932	34.7203	12.2178	-10.3930	10.6971	 
   941	-11.3996	-19.9424	-1.8501	25.7217	-10.3242	10.5968	 
   942	-11.2177	-20.0484	-1.8501	25.7217	-10.6469	10.8284	 
   943	-11.5506	-19.9611	-1.8501	25.7217	-10.6168	10.7048	 
   944	-11.5816	-19.8363	34.7203	12.2178	-10.6942	10.6584	 
   945	-11.3570	-19.8452	34.7203	12.2178	-10.7674	10.6854	 
   946	-11.4693	-19.8407	34.7203	12.2178	-10.8836	10.6159	 
   947	-11.5816	-19.8363	34.7203	12.2178	-11.0686	10.6467	 
   948	-11.4306	-19.8176	34.7203	12.2178	-10.9610	10.5695	 
   949	-10.8227	-19.6685	-1.8501	25.7217	-10.1650	10.7629	 
   950	-10.4820	-19.6078	-1.8501	25.7217	-9.6314	10.9407	 
   951	-10.2922	-19.5658	34.7203	12.2178	-9.4077	10.9330	 
   952	-10.2574	-19.6166	34.7203	12.2178	-9.5195	10.9368	 
   953	-10.2148	-19.5194	-1.8501	25.7217	-9.7433	10.9445	 
   954	-10.1412	-19.5470	34.7203	12.2178	-9.7906	10.7746	 
   955	-10.3619	-19.4642	34.7203	12.2178	-9.8638	10.8016	 
   956	-10.0290	-19.5515	-6.7120	72.6471	-9.7175	10.7476	 
   957	-10.3463	-19.1682	34.7203	12.2178	-9.8939	10.9251	 
   958	-10.2380	-19.2466	34.7203	12.2178	-9.9369	10.8286	 
   959	-10.3076	-19.1450	34.7203	12.2178	-10.0144	10.7822	 
   960	-10.4508	-19.0158	-1.8501	25.7217	-10.1994	10.8131	 
   961	-10.3037	-19.0710	22.3761	-9.6124	-10.1693	10.6895	 
   962	-10.4121	-18.9926	-6.7120	72.6471	-10.4662	10.7241	 
   963	-10.4082	-18.9186	34.7203	12.2178	-10.4705	10.6508	 
   964	-10.2921	-18.8490	34.7203	12.2178	-10.3629	10.5736	 
   965	-10.5088	-18.6922	34.7203	12.2178	-10.5824	10.6546	 
   966	-10.3308	-18.8722	-1.8501	25.7217	-10.7286	10.7086	 
   967	-10.1720	-18.7055	-1.8501	25.7217	-10.6942	10.6584	 
   968	-9.4635	-18.7828	-43.2824	86.1510	-9.9369	10.8286	 
   969	-9.0763	-18.5509	-1.8501	25.7217	-9.0764	10.8482	 
   970	-9.0298	-18.3797	34.7203	12.2178	-8.8483	10.9139	 
   971	-8.9910	-18.3565	-1.8501	25.7217	-8.8871	10.8907	 
   972	-8.6581	-18.4438	34.7203	12.2178	-8.8871	10.8907	 
   973	-8.5071	-18.4250	34.7203	12.2178	-9.2227	10.9022	 
   974	-8.6425	-18.1478	34.7203	12.2178	-9.1926	10.7786	 
   975	-8.5960	-17.9766	86.2113	-6.7956	-9.2614	10.8790	 
   976	-8.0773	-18.0959	-1.8501	25.7217	-9.3345	10.9060	 
   977	-8.4024	-17.8607	-43.2824	86.1510	-9.3044	10.7825	 
   978	-8.3211	-17.7403	34.7203	12.2178	-9.4938	10.7399	 
   979	-8.3133	-17.5923	34.7203	12.2178	-9.6013	10.8171	 
   980	-8.1662	-17.6475	34.7203	12.2178	-9.8294	10.7514	 
   981	-8.5301	-17.4355	86.2113	-6.7956	-9.8724	10.6548	 
   982	-8.3365	-17.3195	34.7203	12.2178	-10.0531	10.7590	 
   983	-7.9763	-16.8888	34.7203	12.2178	-9.8251	10.8248	 
   984	-6.1213	-15.1329	-6.7120	72.6471	-9.8335	11.9524	 
   985	-2.8103	-12.0749	-6.7120	72.6471	-10.1687	13.8754	 
   986	 0.2877	-9.5028	-6.7120	72.6471	-14.0238	14.3993	 
   987	 2.6770	-7.5702	44.7790	53.6337	-17.5866	13.5408	 
   988	 5.0973	-5.7624	-6.7120	72.6471	-18.8818	13.1195	 
   989	 6.9134	-4.7464	-6.7120	72.6471	-18.3053	12.7567	 
   990	 6.0539	-4.6878	86.2113	-6.7956	-16.7865	12.5332	 
   991	 4.2919	-6.1014	-6.7120	72.6471	-13.7919	11.9897	 
   992	 1.7555	-7.9788	-6.7120	72.6471	-8.9386	11.2846	 
   993	-2.3841	-11.1030	34.7203	12.2178	-9.1589	 6.9054	 
   994	-7.0502	-13.5392	11.2767	-24.2556	-14.6804	 0.6979	 
   995	-9.4161	-15.0278	-31.5106	-8.4561	-18.7477	-6.1965	 
   996	-10.1480	-15.3944	 1.4086	-35.1179	-29.1059	-15.2285	 
   997	-5.4153	-9.5501	-48.4792	-2.1903	-35.9523	-19.1851	 
   998	 0.2965	-5.0542	-18.1931	-27.8798	-39.5454	-21.1944	 
   999	-1.0932	-4.3816	-35.1617	-21.6140	-42.1403	-23.3848	 
  1000	-2.1311	-5.5765	-35.1617	-21.6140	-43.5303	-24.7832	 
  1001	-3.5639	-6.4346	-50.1555	-16.0774	-44.6750	-25.8223	 
  1002	-4.1758	-7.3744	-18.1931	-27.8798	-45.5142	-26.7494	 
  1003	-4.4664	-7.9067	-18.1931	-27.8798	-46.5040	-27.6958	 
  1004	-4.2651	-8.3596	-35.1617	-21.6140	-47.4121	-28.5225	 
  1005	-4.2303	-8.4104	-7.2844	-43.7902	-47.9845	-29.3607	 
  1006	-4.3272	-8.8267	-35.1617	-21.6140	-48.8451	-30.0175	 
  1007	-4.7570	-9.1558	-24.2530	-37.5244	-49.2884	-30.5660	 
  1008	-4.8113	-9.4750	-24.2530	-37.5244	-49.7661	-31.0643	 
  1009	-4.8037	-10.0438	-24.2530	-37.5244	-50.0759	-31.2498	 
  1010	-4.2192	-10.3387	-24.2530	-37.5244	-50.2696	-31.3657	 
  1011	-4.6064	-10.5706	-24.2530	-37.5244	-50.2739	-31.4390	 
  1012	-4.8891	-10.9549	-24.2530	-37.5244	-50.5450	-31.6013	 
  1013	-5.5165	-11.4740	-35.1617	-21.6140	-50.7386	-31.7172	 
  1014	-6.3296	-11.9610	-24.2530	-37.5244	-50.6698	-31.8176	 
  1015	-6.5466	-12.5209	-24.2530	-37.5244	-50.9710	-31.8563	 
  1016	-6.6666	-12.6645	-24.2530	-37.5244	-50.9366	-31.9065	 
  1017	-6.8795	-12.4336	-39.2469	-31.9878	-51.1646	-31.9722	 
  1018	-6.3491	-12.3310	-15.0306	-50.9754	-51.5519	-32.2041	 
  1019	-4.5832	-10.8434	-39.2469	-31.9878	-51.7714	-32.1230	 
  1020	-2.7284	-9.8042	-24.2530	-37.5244	-50.3037	-30.0411	 
  1021	-1.8845	-10.1588	-18.1931	-27.8798	-46.7576	-26.2903	 
  1022	-3.2364	-13.0467	-11.9089	-15.6942	-42.5619	-22.9292	 
  1023	-4.7084	-16.0783	-48.7167	16.6391	-39.3945	-19.9007	 
  1024	-4.8790	-17.1838	11.2767	-24.2556	-34.6005	-15.2612	 
  1025	-4.9914	-17.8962	22.3761	-9.6124	-27.7363	-7.8253	 
  1026	-5.4446	-18.6692	34.7203	12.2178	-19.8947	 3.5229	 
  1027	-6.4129	-19.9658	-6.7120	72.6471	-16.1243	10.4520	 
  1028	-6.9203	-21.0580	34.7203	12.2178	-14.6222	12.4837	 
  1029	-6.8121	-21.8532	34.7203	12.2178	-13.4561	13.2526	 
  1030	-6.6496	-22.3292	34.7203	12.2178	-12.3288	13.3611	 
  1031	-6.7541	-22.1768	-6.7120	72.6471	-12.3031	12.5269	 
  1032	-6.9127	-21.6268	-6.7120	72.6471	-12.9015	10.6114	 
  1033	-6.5177	-21.2469	34.7203	12.2178	-13.6461	 9.3870	 
  1034	-6.2659	-20.7378	34.7203	12.2178	-13.6549	 8.6030	 
  1035	-5.8826	-20.5798	-1.8501	25.7217	-13.6721	 8.3096	 
  1036	-5.8322	-20.3347	34.7203	12.2178	-13.7798	 7.7496	 
  1037	-6.0877	-20.2010	34.7203	12.2178	-14.3521	 7.5486	 
  1038	-5.9793	-20.2794	34.7203	12.2178	-14.0895	 8.2013	 
  1039	-6.2735	-20.1690	-1.8501	25.7217	-13.6806	 8.8000	 
  1040	-6.4245	-20.1877	34.7203	12.2178	-13.6549	 8.6030	 
  1041	-6.7653	-20.2485	-1.8501	25.7217	-13.8485	 8.4871	 
  1042	-6.7499	-20.6693	34.7203	12.2178	-14.0421	 8.3712	 
  1043	-6.8583	-20.5908	-6.7120	72.6471	-14.0938	 8.1279	 
  1044	-6.8195	-20.5676	-1.8501	25.7217	-13.7067	 7.7226	 
  1045	-6.4518	-20.7057	34.7203	12.2178	-12.9149	 7.8425	 
  1046	-6.3008	-20.6869	-1.8501	25.7217	-12.5837	 7.7577	 
  1047	-6.1846	-20.6174	34.7203	12.2178	-12.8720	 7.3019	 
  1048	-6.0801	-20.7698	-1.8501	25.7217	-13.5175	 7.1279	 
  1049	-6.3821	-20.8073	34.7203	12.2178	-13.9607	 6.5794	 
  1050	-6.2350	-20.8626	-1.8501	25.7217	-14.5116	 6.1081	 
  1051	-6.2620	-20.6638	-1.8501	25.7217	-14.6794	 5.7953	 
  1052	-6.2311	-20.7886	-43.2824	86.1510	-14.9548	 5.5596	 
  1053	-6.2620	-20.6638	-1.8501	25.7217	-15.4927	 5.3084	 
  1054	-6.1537	-20.7422	-1.8501	25.7217	-16.0306	 5.0573	 
  1055	-6.2659	-20.7378	-1.8501	25.7217	-16.3835	 4.7752	 
  1056	-6.3473	-20.8581	-1.8501	25.7217	-16.6933	 4.5898	 
  1057	-6.5214	-20.6041	34.7203	12.2178	-16.9945	 4.5511	 
  1058	-6.3047	-20.7609	-1.8501	25.7217	-17.1537	 4.3850	 
  1059	-6.4208	-20.8305	-1.8501	25.7217	-17.4592	 4.2729	 
  1060	-6.3047	-20.7609	-1.8501	25.7217	-17.6486	 4.2303	 
  1061	-6.1110	-20.6450	34.7203	12.2178	-17.0892	 4.2112	 
  1062	-5.5767	-20.4683	34.7203	12.2178	-16.2631	 4.2810	 
  1063	-5.0231	-20.6384	34.7203	12.2178	-15.8801	 4.4394	 
  1064	-4.9069	-20.5688	34.7203	12.2178	-15.7726	 4.3622	 
  1065	-5.0075	-20.3424	-1.8501	25.7217	-15.8070	 4.4124	 
  1066	-5.0036	-20.2684	-1.8501	25.7217	-15.8844	 4.3661	 
  1067	-4.8487	-20.1757	-1.8501	25.7217	-15.9662	 4.2463	 
  1068	-4.8410	-20.0277	-1.8501	25.7217	-16.1082	 4.3737	 
  1069	-4.6629	-20.2077	22.3761	-9.6124	-16.0651	 4.4703	 
  1070	-4.6512	-19.9857	34.7203	12.2178	-16.0221	 4.5668	 
  1071	-4.8332	-19.8797	-1.8501	25.7217	-15.9232	 4.3429	 
  1072	-4.5002	-19.9669	-43.2824	86.1510	-16.1770	 4.4741	 
  1073	-4.5699	-19.8653	-1.8501	25.7217	-16.3233	 4.5281	 
  1074	-4.7480	-19.6853	-1.8501	25.7217	-16.3276	 4.4547	 
  1075	-4.7867	-19.7085	58.9464	-23.1163	-16.4395	 4.4586	 
  1076	-4.4460	-19.6478	34.7203	12.2178	-16.3620	 4.5049	 
  1077	-4.7015	-19.5141	-1.8501	25.7217	-16.4051	 4.4084	 
  1078	-4.6976	-19.4401	34.7203	12.2178	-16.7364	 4.4932	 
  1079	-4.5853	-19.4446	-1.8501	25.7217	-16.7794	 4.3967	 
  1080	-4.2833	-19.4070	34.7203	12.2178	-16.5858	 4.5126	 
  1081	-3.7141	-19.2811	34.7203	12.2178	-15.6521	 4.5052	 
  1082	-3.6328	-19.1608	34.7203	12.2178	-15.2347	 4.6134	 
  1083	-3.3347	-19.1972	34.7203	12.2178	-15.0153	 4.5324	 
  1084	-3.2456	-18.9289	34.7203	12.2178	-15.1616	 4.5864	 
  1085	-3.1720	-18.9565	34.7203	12.2178	-15.3121	 4.5671	 
  1086	-3.0984	-18.9841	-1.8501	25.7217	-15.4240	 4.5709	 
  1087	-3.0480	-18.7389	34.7203	12.2178	-15.3078	 4.6404	 
  1088	-2.8893	-18.5721	-1.8501	25.7217	-15.1916	 4.7100	 
  1089	-2.7073	-18.6782	34.7203	12.2178	-15.1873	 4.7833	 
  1090	-2.9163	-18.3733	34.7203	12.2178	-15.1572	 4.6598	 
  1091	-2.6569	-18.4330	34.7203	12.2178	-15.4111	 4.7910	 
  1092	-2.8737	-18.2762	34.7203	12.2178	-15.3078	 4.6404	 
  1093	-2.8272	-18.1050	-1.8501	25.7217	-15.4541	 4.6944	 
  1094	-2.8311	-18.1790	-1.8501	25.7217	-15.6822	 4.6287	 
  1095	-2.7498	-18.0586	-1.8501	25.7217	-15.8284	 4.6827	 
  1096	-2.8582	-17.9802	-1.8501	25.7217	-15.8328	 4.6094	 
  1097	-2.7498	-18.0586	-1.8501	25.7217	-16.0221	 4.5668	 
  1098	-2.7459	-17.9846	-1.8501	25.7217	-16.1770	 4.4741	 
  1099	-2.8155	-17.8830	-1.8501	25.7217	-16.3964	 4.5551	 
  1100	-2.7342	-17.7626	34.7203	12.2178	-16.5814	 4.5859	 
  1101	-2.0177	-16.9752	58.9464	-23.1163	-16.0436	 4.8371	 
  1102	-0.2906	-15.5108	34.7203	12.2178	-14.5719	 5.7181	 
  1103	 2.7298	-13.7019	34.7203	12.2178	-12.8848	 7.7190	 
  1104	 5.0611	-11.4457	-6.7120	72.6471	-11.6367	 9.8819	 
  1105	 7.7911	-9.4523	-6.7120	72.6471	-11.4598	12.2530	 
  1106	10.3277	-6.8582	44.7790	53.6337	-12.7287	14.1835	 
  1107	13.2438	-4.1801	44.7790	53.6337	-15.5772	14.0358	 
  1108	15.6023	-1.4059	44.7790	53.6337	-18.0557	13.1893	 
  1109	17.4342	 0.6228	44.7790	53.6337	-19.4369	12.5748	 
  1110	18.5380	 2.3589	44.7790	53.6337	-19.7469	11.7522	 
  1111	17.0008	 1.6533	44.7790	53.6337	-14.0158	11.3602	 
  1112	 9.6466	-5.5461	34.7203	12.2178	-6.0476	 8.9801	 
  1113	 4.5697	-10.0917	-1.8501	25.7217	-8.7936	 4.2216	 
  1114	 1.6653	-12.5478	22.3761	-9.6124	-13.8455	 1.5516	 
  1115	-1.2040	-14.3379	11.2767	-24.2556	-16.9011	-2.1180	 
  1116	-1.9318	-13.9138	-18.1931	-27.8798	-23.6147	-9.5346	 
  1117	 1.7162	-10.1523	-31.5106	-8.4561	-29.6134	-13.6918	 
  1118	 2.7425	-9.1793	-18.1931	-27.8798	-33.4347	-16.4039	 
  1119	 0.9458	-9.8253	-18.1931	-27.8798	-35.3152	-17.8835	 
  1120	-0.1191	-10.8215	-48.4792	-2.1903	-36.0211	-19.0847	 
  1121	-0.8936	-11.2853	-18.1931	-27.8798	-37.7597	-20.6918	 
  1122	-0.7969	-11.5857	-35.1617	-21.6140	-39.5929	-22.0015	 
  1123	-0.8860	-11.8541	-18.1931	-27.8798	-41.4691	-23.4077	 
  1124	-0.4485	-12.0938	-18.1931	-27.8798	-43.3410	-24.7406	 
  1125	-0.1582	-12.2782	-18.1931	-27.8798	-44.3738	-25.7836	 
  1126	-0.5880	-12.6073	-18.1931	-27.8798	-44.8559	-26.3553	 
  1127	-1.5444	-12.9651	-18.1931	-27.8798	-45.0151	-26.5214	 
  1128	-2.5938	-13.6652	-7.2844	-43.7902	-45.2862	-26.6837	 
  1129	-2.8960	-14.4195	-35.1617	-21.6140	-45.2948	-26.8304	 
  1130	-3.5504	-14.7398	-35.1617	-21.6140	-45.4110	-26.9000	 
  1131	-3.8446	-14.6293	-18.1931	-27.8798	-45.4971	-27.0931	 
  1132	-4.0344	-14.6713	-7.2844	-43.7902	-45.5100	-27.3132	 
  1133	-4.3132	-14.9816	-35.1617	-21.6140	-45.8543	-27.4485	 
  1134	-5.1380	-15.6906	-24.2530	-37.5244	-46.2072	-27.7305	 
  1135	-5.8002	-16.1589	-35.1617	-21.6140	-46.4783	-27.8928	 
  1136	-6.3540	-16.7055	-18.1931	-27.8798	-46.4826	-27.9662	 
  1137	-6.6212	-16.7939	-18.1931	-27.8798	-46.8612	-28.0512	 
  1138	-6.7607	-17.3074	-18.1931	-27.8798	-47.3303	-28.4028	 
  1139	-7.1479	-17.5393	-18.1931	-27.8798	-47.9456	-28.7003	 
  1140	-7.7830	-18.2064	-18.1931	-27.8798	-48.7202	-29.1640	 
  1141	-7.9459	-19.1639	-24.2530	-37.5244	-49.2581	-29.4152	 
  1142	-9.0731	-21.3440	-18.1931	-27.8798	-48.5179	-28.9013	 
  1143	-10.4637	-24.2551	-18.1931	-27.8798	-46.2673	-27.4834	 
  1144	-8.5125	-24.9499	-11.9089	-15.6942	-43.3755	-25.3276	 
  1145	-5.1401	-24.2918	-5.9294	 0.8396	-41.7058	-23.6202	 
  1146	-2.7588	-23.2239	11.2767	-24.2556	-39.4549	-20.2907	 
  1147	-1.2213	-21.8015	22.3761	-9.6124	-34.3679	-13.8478	 
  1148	-0.9812	-21.5144	-6.7120	72.6471	-24.3443	 0.2931	 
  1149	-1.6627	-21.6358	-6.7120	72.6471	-19.7254	11.4819	 
  1150	-2.0112	-21.8446	-6.7120	72.6471	-19.4927	13.5325	 
  1151	-2.3404	-22.4001	-6.7120	72.6471	-18.9718	14.7645	 
  1152	-2.0694	-22.2377	44.7790	53.6337	-17.8228	15.8771	 
  1153	-1.3025	-21.2051	44.7790	53.6337	-16.0285	16.5264	 
  1154	-0.7913	-20.7557	-6.7120	72.6471	-12.8230	16.3923	 
  1155	-1.3914	-20.7567	44.7790	53.6337	-10.8267	15.3928	 
  1156	-2.1350	-21.3454	-6.7120	72.6471	-10.9604	13.7554	 
  1157	-2.8668	-21.7120	-6.7120	72.6471	-12.0622	12.1756	 
  1158	-2.7971	-21.8136	34.7203	12.2178	-13.1811	10.9395	 
  1159	-2.4564	-21.7529	34.7203	12.2178	-13.1253	10.6190	 
  1160	-2.1196	-21.7661	-1.8501	25.7217	-12.7165	10.5805	 
  1161	-2.2900	-22.1549	-6.7120	72.6471	-12.4411	10.8162	 
  1162	-2.9676	-22.2023	34.7203	12.2178	-12.3033	11.2526	 
  1163	-3.0645	-22.6187	34.7203	12.2178	-12.9015	10.6114	 
  1164	-3.4826	-22.7258	-6.7120	72.6471	-13.5685	10.0705	 
  1165	-3.4982	-23.0218	34.7203	12.2178	-14.1624	 9.5026	 
  1166	-3.7885	-22.8373	-1.8501	25.7217	-14.7433	 9.1549	 
  1167	-3.5291	-22.8970	-43.2824	86.1510	-14.8165	 9.1819	 
  1168	-3.7498	-22.8142	34.7203	12.2178	-15.1220	 9.0698	 
  1169	-3.8234	-22.7865	-1.8501	25.7217	-15.5781	 8.9384	 
  1170	-3.9279	-22.6341	34.7203	12.2178	-15.8062	 8.8727	 
  1171	-3.9666	-22.6573	34.7203	12.2178	-16.0299	 8.8803	 
  1172	-4.0440	-22.7037	34.7203	12.2178	-16.1762	 8.9343	 
  1173	-3.9666	-22.6573	34.7203	12.2178	-16.3655	 8.8918	 
  1174	-4.0440	-22.7037	34.7203	12.2178	-16.5635	 8.7025	 
  1175	-3.8969	-22.7589	34.7203	12.2178	-16.5678	 8.6291	 
  1176	-3.7420	-22.6662	-1.8501	25.7217	-16.2623	 8.7412	 
  1177	-3.4361	-22.5546	-1.8501	25.7217	-15.2769	 8.9771	 
  1178	-3.1341	-22.5171	-1.8501	25.7217	-14.7089	 9.1047	 
  1179	-3.1303	-22.4431	-43.2824	86.1510	-14.6014	 9.0275	 
  1180	-3.0606	-22.5447	-6.7120	72.6471	-14.8638	 9.0120	 
  1181	-3.0219	-22.5215	34.7203	12.2178	-14.9714	 9.0892	 
  1182	-3.0141	-22.3735	34.7203	12.2178	-14.8208	 9.1085	 
  1183	-3.0141	-22.3735	-1.8501	25.7217	-14.8853	 9.2823	 
  1184	-3.0180	-22.4475	34.7203	12.2178	-14.8896	 9.2089	 
  1185	-3.1573	-22.2443	34.7203	12.2178	-15.0402	 9.1896	 
  1186	-3.1573	-22.2443	86.2113	-6.7956	-15.3070	 9.1007	 
  1187	-3.1921	-22.1935	34.7203	12.2178	-15.8577	 9.2665	 
  1188	-3.4399	-21.9119	34.7203	12.2178	-16.0169	 9.1004	 
  1189	-3.1108	-22.0731	34.7203	12.2178	-16.0600	 9.0039	 
  1190	-3.2579	-22.0179	34.7203	12.2178	-16.2794	 9.0849	 
  1191	-3.4399	-21.9119	-1.8501	25.7217	-16.5075	 9.0192	 
  1192	-3.4708	-21.7871	-6.7120	72.6471	-16.6193	 9.0230	 
  1193	-3.4282	-21.6899	34.7203	12.2178	-16.5892	 8.8994	 
  1194	-3.1262	-21.6523	-1.8501	25.7217	-16.3268	 8.9150	 
  1195	-2.5648	-21.6745	-1.8501	25.7217	-15.3888	 8.9809	 
  1196	-2.3286	-21.4613	-6.7120	72.6471	-15.0402	 9.1896	 
  1197	-2.3169	-21.2393	34.7203	12.2178	-14.7821	 9.1317	 
  1198	-2.2085	-21.3177	34.7203	12.2178	-14.9026	 8.9888	 
  1199	-1.9878	-21.4006	34.7203	12.2178	-15.1306	 8.9231	 
  1200	-2.0807	-21.0262	34.7203	12.2178	-15.2425	 8.9269	 
  1201	-2.0032	-20.9798	34.7203	12.2178	-15.1306	 8.9231	 
  1202	-1.7748	-20.9146	-1.8501	25.7217	-15.1650	 8.9733	 
  1203	-1.9916	-20.7578	34.7203	12.2178	-15.1650	 8.9733	 
  1204	-1.9489	-20.6606	-1.8501	25.7217	-15.3500	 9.0041	 
  1205	-2.1192	-20.3326	34.7203	12.2178	-15.3544	 8.9307	 
  1206	-1.8289	-20.5171	44.7790	53.6337	-15.6512	 8.9654	 
  1207	-1.9295	-20.2906	-43.2824	86.1510	-15.7330	 8.8456	 
  1208	-1.8598	-20.3923	34.7203	12.2178	-15.8062	 8.8727	 
  1209	-1.9953	-20.1150	34.7203	12.2178	-15.9524	 8.9267	 
  1210	-2.0998	-19.9626	-6.7120	72.6471	-15.9955	 8.8301	 
  1211	-2.0611	-19.9394	34.7203	12.2178	-16.0686	 8.8571	 
  1212	-1.9836	-19.8931	-1.8501	25.7217	-16.2579	 8.8146	 
  1213	-2.2778	-19.7826	-6.7120	72.6471	-16.4473	 8.7720	 
  1214	-2.0572	-19.8654	-1.8501	25.7217	-16.4817	 8.8222	 
  1215	-1.4880	-19.7396	34.7203	12.2178	-15.6211	 8.8418	 
  1216	-1.1821	-19.6280	34.7203	12.2178	-14.7950	 8.9116	 
  1217	-0.9885	-19.5121	34.7203	12.2178	-14.6014	 9.0275	 
  1218	-1.0194	-19.3873	34.7203	12.2178	-14.6057	 8.9541	 
  1219	-0.9381	-19.2669	34.7203	12.2178	-14.7520	 9.0082	 
  1220	-0.9651	-19.0681	-1.8501	25.7217	-14.7950	 8.9116	 
  1221	-1.0696	-18.9157	-1.8501	25.7217	-14.8682	 8.9386	 
  1222	-0.6631	-19.0306	34.7203	12.2178	-14.7219	 8.8846	 
  1223	-0.8760	-18.7997	34.7203	12.2178	-14.6444	 8.9310	 
  1224	-0.9340	-18.4761	-6.7120	72.6471	-14.7219	 8.8846	 
  1225	-0.7830	-18.4574	34.7203	12.2178	-14.9026	 8.9888	 
  1226	-0.4616	-18.0499	-1.8501	25.7217	-14.8896	 9.2089	 
  1227	 0.5298	-17.0261	-6.7120	72.6471	-14.8637	 9.6492	 
  1228	 3.2406	-14.6860	34.7203	12.2178	-14.0155	12.6345	 
  1229	 6.2419	-11.8135	44.7790	53.6337	-13.9936	14.9129	 
  1230	 8.6080	-9.6081	-6.7120	72.6471	-15.6888	15.3140	 
  1231	10.8271	-7.3475	44.7790	53.6337	-18.1930	15.3016	 
  1232	12.8408	-5.4248	-6.7120	72.6471	-20.2109	15.2970	 
  1233	13.8207	-3.9062	44.7790	53.6337	-21.2952	15.2851	 
  1234	14.0066	-3.9383	44.7790	53.6337	-21.3254	14.7715	 
  1235	12.2718	-4.8339	44.7790	53.6337	-19.2085	14.5521	 
  1236	10.1186	-7.2701	44.7790	53.6337	-15.4912	13.5917	 
  1237	 7.8299	-9.4292	34.7203	12.2178	-11.5589	11.8398	 
  1238	 3.1830	-12.9288	22.3761	-9.6124	-11.3271	 8.7930	 
  1239	 0.0151	-16.1160	-5.9294	 0.8396	-12.7865	 4.3091	 
  1240	-0.9257	-16.1779	-11.9089	-15.6942	-21.6820	-5.2630	 
  1241	 2.3935	-11.5384	-11.9089	-15.6942	-29.1696	-10.5945	 
  1242	 6.7578	-7.7062	-18.1931	-27.8798	-34.3680	-14.4850	 
  1243	 5.1665	-8.0143	-18.1931	-27.8798	-35.9043	-15.8293	 
  1244	 3.0096	-9.0910	-35.1617	-21.6140	-36.3648	-16.6713	 
  1245	 2.5022	-10.1832	 1.4086	-35.1179	-37.2471	-17.6949	 
  1246	 1.8322	-10.7995	-18.1931	-27.8798	-38.0519	-18.6722	 
  1247	 1.8786	-11.3451	-18.1931	-27.8798	-38.9298	-19.6225	 
  1248	 1.3055	-11.5449	-18.1931	-27.8798	-40.0745	-20.6616	 
  1249	 0.7556	-12.0176	-31.5106	-8.4561	-40.8707	-21.4922	 
  1250	 0.3258	-12.3467	-11.9089	-15.6942	-41.7787	-22.3188	 
  1251	-0.2241	-12.8194	-31.5106	-8.4561	-42.7642	-23.1919	 
  1252	-0.5069	-13.2037	-18.1931	-27.8798	-43.3451	-23.5396	 
  1253	-1.3006	-13.3207	-18.1931	-27.8798	-43.7797	-23.9414	 
  1254	-1.3936	-13.6631	-31.5106	-8.4561	-43.9089	-24.2311	 
  1255	-1.2774	-13.5935	-18.1931	-27.8798	-44.2273	-24.5633	 
  1256	-0.9484	-13.7548	-18.1931	-27.8798	-44.4210	-24.6792	 
  1257	-0.5341	-13.7217	-18.1931	-27.8798	-44.6878	-24.7681	 
  1258	-1.0995	-14.4903	-31.5106	-8.4561	-44.8857	-24.9574	 
  1259	-2.2961	-15.1352	-18.1931	-27.8798	-45.1224	-25.1699	 
  1260	-2.7995	-15.4367	-7.2844	-43.7902	-45.3204	-25.3591	 
  1261	-3.1287	-15.9922	-31.5106	-8.4561	-45.6560	-25.3477	 
  1262	-3.7018	-16.1921	-35.1617	-21.6140	-45.7377	-25.4674	 
  1263	-4.2826	-16.5400	-18.1931	-27.8798	-46.1939	-25.5989	 
  1264	-4.8519	-17.3826	-18.1931	-27.8798	-46.5080	-25.8577	 
  1265	-5.6110	-18.2672	-18.1931	-27.8798	-46.9985	-25.9389	 
  1266	-6.1376	-18.2959	-35.1617	-21.6140	-47.2438	-26.2982	 
  1267	-6.3312	-18.4119	-18.1931	-27.8798	-47.5494	-26.4102	 
  1268	-6.1027	-18.3467	-18.1931	-27.8798	-48.0399	-26.4915	 
  1269	-6.1531	-18.5919	-48.4792	-2.1903	-48.5433	-26.7929	 
  1270	-6.1107	-19.2115	-18.1931	-27.8798	-48.9908	-26.7776	 
  1271	-5.3557	-19.1176	-18.1931	-27.8798	-46.7831	-24.1818	 
  1272	-4.5506	-20.2121	-11.9089	-15.6942	-40.4183	-18.2482	 
  1273	-4.6091	-22.0388	-29.1150	 9.4011	-35.2456	-13.5237	 
  1274	-4.3616	-23.0372	-29.1150	 9.4011	-29.6124	-8.5943	 
  1275	-3.8854	-23.2537	-5.9294	 0.8396	-24.7150	-3.4683	 
  1276	-2.5729	-23.2560	-1.8501	25.7217	-17.5582	 4.4968	 
  1277	-2.6735	-23.0296	34.7203	12.2178	-11.0199	17.8256	 
  1278	-2.7393	-22.8540	86.2113	-6.7956	-9.6331	24.8852	 
  1279	-2.6891	-23.3255	44.7790	53.6337	-10.5667	25.5298	 
  1280	-3.7114	-24.2245	44.7790	53.6337	-10.6959	24.6029	 
  1281	-4.2652	-24.7712	44.7790	53.6337	-10.6748	22.4211	 
  1282	-4.8461	-25.1190	44.7790	53.6337	-11.2434	19.1076	 
  1283	-5.1985	-25.4017	-6.7120	72.6471	-11.9580	17.1224	 
  1284	-5.2681	-25.3001	-6.7120	72.6471	-12.3713	15.8132	 
  1285	-5.1403	-25.0086	34.7203	12.2178	-13.1804	14.7626	 
  1286	-4.6291	-24.5591	-6.7120	72.6471	-13.7012	14.1677	 
  1287	-4.3269	-23.8048	44.7790	53.6337	-13.7527	14.5616	 
  1288	-4.2688	-23.4116	34.7203	12.2178	-13.7355	14.8551	 
  1289	-4.1409	-23.1201	34.7203	12.2178	-13.8473	14.8589	 
  1290	-3.8350	-23.0085	-6.7120	72.6471	-12.7802	15.2145	 
  1291	-3.6492	-23.0406	-43.2824	86.1510	-11.9454	15.4310	 
  1292	-3.5021	-23.0958	-6.7120	72.6471	-11.9283	15.0874	 
  1293	-3.5756	-23.0682	-6.7120	72.6471	-12.1520	15.0950	 
  1294	-3.7924	-22.9113	-6.7120	72.6471	-12.2639	15.0988	 
  1295	-3.7615	-23.0361	-1.8501	25.7217	-12.8234	14.4808	 
  1296	-3.8777	-23.1057	-1.8501	25.7217	-13.4000	14.2064	 
  1297	-3.8428	-23.1565	34.7203	12.2178	-13.5118	14.2102	 
  1298	-3.9086	-22.9809	-6.7120	72.6471	-13.9250	13.5382	 
  1299	-3.8273	-22.8605	-6.7120	72.6471	-14.7770	13.0282	 
  1300	-4.0440	-22.7037	34.7203	12.2178	-15.2632	13.0203	 
  1301	-4.0092	-22.7545	-6.7120	72.6471	-15.4870	13.0279	 
  1302	-4.0092	-22.7545	-6.7120	72.6471	-15.6505	12.7884	 
  1303	-4.3422	-22.6672	-6.7120	72.6471	-15.7366	12.5953	 
  1304	-4.4932	-22.6860	34.7203	12.2178	-16.0980	12.8037	 
  1305	-4.5589	-22.5104	-6.7120	72.6471	-16.0679	12.6802	 
  1306	-4.5589	-22.5104	-1.8501	25.7217	-16.2228	12.5874	 
  1307	-4.6364	-22.5568	-6.7120	72.6471	-16.4853	12.5719	 
  1308	-4.3770	-22.6164	-1.8501	25.7217	-16.4078	12.6183	 
  1309	-4.0981	-22.3061	-6.7120	72.6471	-15.4053	12.5105	 
  1310	-3.5368	-22.3282	34.7203	12.2178	-15.0611	12.6458	 
  1311	-3.5329	-22.2542	34.7203	12.2178	-15.0310	12.5222	 
  1312	-3.5638	-22.1294	34.7203	12.2178	-15.2677	12.3097	 
  1313	-3.4515	-22.1339	34.7203	12.2178	-15.4914	12.3174	 
  1314	-3.5909	-21.9306	34.7203	12.2178	-15.6033	12.3212	 
  1315	-3.5212	-22.0322	-6.7120	72.6471	-15.5775	12.1243	 
  1316	-3.2889	-21.8931	34.7203	12.2178	-15.6162	12.1011	 
  1317	-3.3895	-21.6667	-43.2824	86.1510	-15.8357	12.1821	 
  1318	-3.3546	-21.7175	-1.8501	25.7217	-15.9518	12.1126	 
  1319	-3.4940	-21.5143	-1.8501	25.7217	-16.0293	12.0662	 
  1320	-3.4475	-21.3431	-6.7120	72.6471	-16.2574	12.0005	 
  1321	-3.5520	-21.1907	-6.7120	72.6471	-16.4123	11.9077	 
  1322	-3.3313	-21.2735	34.7203	12.2178	-16.6360	11.9154	 
  1323	-3.3661	-21.2227	34.7203	12.2178	-16.8942	11.9732	 
  1324	-3.5016	-20.9455	-43.2824	86.1510	-16.7178	11.7956	 
  1325	-3.4280	-20.9731	34.7203	12.2178	-16.9028	11.8265	 
  1326	-3.5364	-20.8947	-1.8501	25.7217	-17.1997	11.8611	 
  1327	-3.5286	-20.7467	-1.8501	25.7217	-17.3546	11.7684	 
  1328	-3.1453	-20.5888	-43.2824	86.1510	-16.8297	11.7995	 
  1329	-2.7968	-20.3801	-1.8501	25.7217	-15.9648	11.8924	 
  1330	-2.5296	-20.2917	34.7203	12.2178	-15.5474	12.0007	 
  1331	-2.1231	-20.4066	-6.7120	72.6471	-15.5818	12.0509	 
  1332	-1.9256	-20.2167	-6.7120	72.6471	-15.5087	12.0239	 
  1333	-2.1307	-19.8378	-1.8501	25.7217	-15.5431	12.0741	 
  1334	-2.0145	-19.7683	-6.7120	72.6471	-15.7668	12.0817	 
  1335	-1.7474	-19.6799	-43.2824	86.1510	-15.5087	12.0239	 
  1336	-1.7705	-19.4071	34.7203	12.2178	-15.4355	11.9969	 
  1337	-1.7667	-19.3331	-43.2824	86.1510	-15.5775	12.1243	 
  1338	-1.7937	-19.1343	34.7203	12.2178	-15.7238	12.1783	 
  1339	-1.8517	-18.8107	-6.7120	72.6471	-15.9088	12.2091	 
  1340	-1.7007	-18.7920	34.7203	12.2178	-16.0594	12.1897	 
  1341	-1.7316	-18.6672	-1.8501	25.7217	-16.0293	12.0662	 
  1342	-1.7974	-18.4916	34.7203	12.2178	-16.2143	12.0970	 
  1343	-1.6813	-18.4220	-6.7120	72.6471	-16.1412	12.0700	 
  1344	-1.6038	-18.3756	34.7203	12.2178	-16.2530	12.0738	 
  1345	-1.8245	-18.2928	-43.2824	86.1510	-16.3649	12.0777	 
  1346	-1.9986	-18.0387	34.7203	12.2178	-16.5155	12.0583	 
  1347	-1.9948	-17.9648	34.7203	12.2178	-16.6317	11.9888	 
  1348	-2.0335	-17.9879	34.7203	12.2178	-16.9329	11.9500	 
  1349	-2.2154	-17.8819	-1.8501	25.7217	-17.1222	11.9075	 
  1350	-1.7354	-18.0244	-43.2824	86.1510	-16.7909	11.8227	 
  1351	-1.6772	-17.6312	-1.8501	25.7217	-15.9949	12.0160	 
  1352	-0.9416	-17.9074	-6.7120	72.6471	-15.3925	12.0934	 
  1353	-0.9648	-17.6346	34.7203	12.2178	-15.0956	12.0588	 
  1354	-0.5892	-17.6247	-43.2824	86.1510	-15.1989	12.2093	 
  1355	-0.4420	-16.9631	-43.2824	86.1510	-15.2677	12.3097	 
  1356	 1.2155	-15.3971	34.7203	12.2178	-14.8974	13.5224	 
  1357	 5.3398	-11.8521	34.7203	12.2178	-13.6447	17.0331	 
  1358	10.5523	-6.8670	44.7790	53.6337	-12.2456	21.1269	 
  1359	15.0523	-2.5953	44.7790	53.6337	-13.6092	22.7175	 
  1360	17.0312	-0.6218	86.2113	-6.7956	-12.7875	22.0767	 
  1361	15.0252	-2.3965	-6.7120	72.6471	-9.3244	19.3360	 
  1362	 9.7778	-7.3308	-6.7120	72.6471	-6.9244	14.4016	 
  1363	 3.3534	-12.5401	22.3761	-9.6124	-11.1207	 7.8547	 
  1364	-0.6082	-15.8443	-5.9294	 0.8396	-15.2740	 1.4044	 
  1365	-2.4708	-17.0315	11.2767	-24.2556	-24.9352	-7.2103	 
  1366	 1.2551	-11.7901	-11.9089	-15.6942	-32.2851	-12.1055	 
  1367	 5.0038	-8.2550	-29.1150	 9.4011	-35.5641	-14.4931	 
  1368	 2.9750	-8.3234	-31.5106	-8.4561	-36.9671	-16.1116	 
  1369	 1.4763	-9.7227	-11.9089	-15.6942	-38.5982	-17.7958	 
  1370	 0.1829	-10.7839	-31.5106	-8.4561	-39.8075	-19.2984	 
  1371	-0.9130	-11.6553	-18.1931	-27.8798	-40.4315	-19.7427	 
  1372	-1.2888	-12.3820	-31.5106	-8.4561	-40.7930	-20.1714	 
  1373	-1.3586	-12.9971	-18.1931	-27.8798	-41.3825	-20.6659	 
  1374	-1.0914	-12.9088	-18.1931	-27.8798	-41.7183	-21.2916	 
  1375	-0.7663	-13.1440	-31.5106	-8.4561	-42.0711	-21.5736	 
  1376	-0.7935	-13.6620	-11.9089	-15.6942	-42.3465	-21.8093	 
  1377	-1.6298	-13.8762	-18.1931	-27.8798	-42.5531	-22.1453	 
  1378	-1.7189	-14.1446	-18.1931	-27.8798	-42.9447	-22.4505	 
  1379	-2.5321	-14.6316	-31.5106	-8.4561	-43.1427	-22.6398	 
  1380	-2.7528	-14.5488	-31.5106	-8.4561	-43.7193	-22.9142	 
  1381	-3.0703	-14.8823	-18.1931	-27.8798	-43.9990	-23.2232	 
  1382	-3.4150	-15.0170	-18.1931	-27.8798	-44.1884	-23.2657	 
  1383	-3.6241	-15.4289	-31.5106	-8.4561	-44.4251	-23.4782	 
  1384	-4.6231	-15.8839	-31.5106	-8.4561	-44.7736	-23.6869	 
  1385	-5.3357	-16.5973	-18.1931	-27.8798	-45.1609	-23.9187	 
  1386	-6.1682	-16.7376	-31.5106	-8.4561	-45.6170	-24.0501	 
  1387	-5.8545	-16.4780	-31.5106	-8.4561	-46.1205	-24.3515	 
  1388	-5.0026	-15.9678	-48.4792	-2.1903	-47.1876	-24.7071	 
  1389	-4.4180	-16.2627	-31.5106	-8.4561	-47.7771	-24.5644	 
  1390	-3.4966	-16.5709	-31.5106	-8.4561	-46.5417	-21.9844	 
  1391	-2.8893	-18.5721	-11.9089	-15.6942	-42.5910	-17.7083	 
  1392	-2.3360	-20.1758	-11.9089	-15.6942	-40.4563	-14.4483	 
  1393	-0.6402	-20.0201	22.3761	-9.6124	-34.3540	-8.5302	 
  1394	 0.5486	-19.5232	-30.1555	36.1737	-25.3078	 1.6984	 
  1395	 1.0985	-19.0505	-1.8501	25.7217	-16.0329	15.8159	 
  1396	 1.1991	-19.2769	-6.7120	72.6471	-12.5119	23.5867	 
  1397	 0.4363	-19.5188	34.7203	12.2178	-12.0082	25.1624	 
  1398	-0.4234	-20.1770	44.7790	53.6337	-11.2981	25.7998	 
  1399	-1.1630	-20.6916	44.7790	53.6337	-10.6053	26.1438	 
  1400	-1.2132	-20.2200	-6.7120	72.6471	-9.8308	25.9702	 
  1401	-0.8260	-19.9881	44.7790	53.6337	-9.7148	25.4026	 
  1402	-0.7756	-19.7429	44.7790	53.6337	-9.8485	23.7652	 
  1403	-1.2557	-19.6004	-6.7120	72.6471	-10.4898	22.3902	 
  1404	-1.8441	-19.3795	86.2113	-6.7956	-10.7782	21.9345	 
  1405	-2.2739	-19.7086	44.7790	53.6337	-10.7825	21.8611	 
  1406	-2.4831	-20.1205	-6.7120	72.6471	-10.8686	21.6680	 
  1407	-3.0871	-20.1956	-6.7120	72.6471	-10.8514	21.3243	 
  1408	-3.4047	-20.5291	-6.7120	72.6471	-11.9273	20.1848	 
  1409	-3.9700	-20.5810	34.7203	12.2178	-13.4937	18.9640	 
  1410	-4.0745	-20.4286	-6.7120	72.6471	-14.4448	18.0407	 
  1411	-3.9661	-20.5070	-6.7120	72.6471	-15.2065	17.1600	 
  1412	-3.8190	-20.5623	34.7203	12.2178	-15.5767	16.5845	 
  1413	-3.5247	-20.6727	-6.7120	72.6471	-15.4778	16.3605	 
  1414	-3.5557	-20.5479	34.7203	12.2178	-15.6413	16.1211	 
  1415	-3.7337	-20.3679	-6.7120	72.6471	-15.8780	15.9086	 
  1416	-3.5557	-20.5479	34.7203	12.2178	-16.2136	15.9201	 
  1417	-3.6215	-20.3723	-6.7120	72.6471	-16.2867	15.9471	 
  1418	-3.6137	-20.2243	34.7203	12.2178	-16.2523	15.8969	 
  1419	-3.5362	-20.1779	-6.7120	72.6471	-16.6267	15.8852	 
  1420	-3.3504	-20.2100	34.7203	12.2178	-16.9623	15.8967	 
  1421	-3.4820	-19.8588	34.7203	12.2178	-17.2291	15.8078	 
  1422	-3.4355	-19.6876	-1.8501	25.7217	-17.6464	15.6995	 
  1423	-3.2922	-19.8168	34.7203	12.2178	-18.0768	15.3711	 
  1424	-3.5438	-19.6092	-6.7120	72.6471	-18.3522	15.1355	 
  1425	-3.6057	-19.3596	-6.7120	72.6471	-18.4985	15.1895	 
  1426	-3.3193	-19.6180	34.7203	12.2178	-18.6921	15.0736	 
  1427	-3.6754	-19.2579	-1.8501	25.7217	-19.0019	14.8881	 
  1428	-3.4818	-19.1420	34.7203	12.2178	-18.9288	14.8611	 
  1429	-2.8391	-19.0437	-43.2824	86.1510	-18.2920	14.8883	 
  1430	-2.4248	-19.0106	-6.7120	72.6471	-17.6939	14.8924	 
  1431	-2.4479	-18.7378	-43.2824	86.1510	-17.6509	14.9889	 
  1432	-2.2969	-18.7191	-6.7120	72.6471	-17.5132	14.7882	 
  1433	-2.0724	-18.7279	-6.7120	72.6471	-17.7757	14.7726	 
  1434	-2.1072	-18.6771	34.7203	12.2178	-17.8962	14.6297	 
  1435	-2.2427	-18.3999	34.7203	12.2178	-18.0511	14.5370	 
  1436	-2.0568	-18.4319	-6.7120	72.6471	-18.1286	14.4906	 
  1437	-2.0220	-18.4827	34.7203	12.2178	-18.1716	14.3941	 
  1438	-2.1961	-18.2287	-1.8501	25.7217	-18.2878	14.3245	 
  1439	-2.3394	-18.0995	-1.8501	25.7217	-18.5159	14.2588	 
  1440	-2.1884	-18.0807	-6.7120	72.6471	-18.7052	14.2163	 
  1441	-2.0374	-18.0619	-6.7120	72.6471	-19.0021	14.2509	 
  1442	-2.1806	-17.9327	34.7203	12.2178	-19.1957	14.1350	 
  1443	-2.2929	-17.9283	-6.7120	72.6471	-19.3463	14.1156	 
  1444	-2.3199	-17.7295	-6.7120	72.6471	-19.3463	14.1156	 
  1445	-2.2812	-17.7063	-6.7120	72.6471	-19.4668	13.9727	 
  1446	-2.6412	-17.4202	-6.7120	72.6471	-19.8411	13.9610	 
  1447	-2.5638	-17.3739	34.7203	12.2178	-19.9186	13.9147	 
  1448	-2.1108	-17.3176	-1.8501	25.7217	-19.6905	13.9804	 
  1449	-1.8010	-17.1320	34.7203	12.2178	-18.8644	14.0502	 
  1450	-1.4602	-17.0713	-43.2824	86.1510	-18.4083	14.1816	 
  1451	-1.0498	-17.1122	86.2113	-6.7956	-18.3352	14.1546	 
  1452	-1.1775	-16.6870	-6.7120	72.6471	-18.2964	14.1778	 
  1453	-1.0962	-16.5666	34.7203	12.2178	-18.4901	14.0619	 
  1454	-1.0884	-16.4186	34.7203	12.2178	-18.6794	14.0193	 
  1455	-1.0071	-16.2982	-6.7120	72.6471	-18.7095	14.1429	 
  1456	-0.9915	-16.0023	-6.7120	72.6471	-18.6364	14.1159	 
  1457	-0.8831	-16.0807	-6.7120	72.6471	-18.7482	14.1197	 
  1458	-0.5114	-16.1447	-6.7120	72.6471	-18.8601	14.1235	 
  1459	-0.6082	-15.8443	34.7203	12.2178	-19.0451	14.1544	 
  1460	-0.8211	-15.6135	34.7203	12.2178	-19.2688	14.1620	 
  1461	-0.6430	-15.7935	-6.7120	72.6471	-19.2431	13.9651	 
  1462	-0.8520	-15.4887	-1.8501	25.7217	-19.4969	14.0963	 
  1463	-0.8481	-15.4147	-6.7120	72.6471	-19.6131	14.0267	 
  1464	-0.8481	-15.4147	-6.7120	72.6471	-19.6174	13.9534	 
  1465	-1.0958	-15.1331	34.7203	12.2178	-19.7637	14.0074	 
  1466	-1.2003	-14.9807	-1.8501	25.7217	-19.8067	13.9108	 
  1467	-1.0881	-14.9851	34.7203	12.2178	-20.0305	13.9185	 
  1468	-1.2739	-14.9530	-6.7120	72.6471	-20.3273	13.9531	 
  1469	-0.9758	-14.9895	-1.8501	25.7217	-19.9186	13.9147	 
  1470	-0.4453	-14.8868	-6.7120	72.6471	-19.0451	14.1544	 
  1471	-0.2827	-14.6461	34.7203	12.2178	-18.4814	14.2086	 
  1472	-0.2013	-14.5257	34.7203	12.2178	-18.5933	14.2124	 
  1473	 0.0193	-14.6085	-43.2824	86.1510	-18.5976	14.1391	 
  1474	 0.0271	-14.4605	-43.2824	86.1510	-18.8945	14.1737	 
  1475	 0.1085	-14.3402	34.7203	12.2178	-18.8644	14.0502	 
  1476	 0.1820	-14.3678	-6.7120	72.6471	-18.8601	14.1235	 
  1477	 0.1162	-14.1922	34.7203	12.2178	-18.6794	14.0193	 
  1478	 0.1976	-14.0718	-6.7120	72.6471	-18.7138	14.0695	 
  1479	 0.2750	-14.0254	34.7203	12.2178	-18.8988	14.1003	 
  1480	 0.0582	-13.8686	-6.7120	72.6471	-19.0537	14.0076	 
  1481	 0.0582	-13.8686	-1.8501	25.7217	-19.3162	13.9921	 
  1482	 0.2402	-13.9746	34.7203	12.2178	-19.4281	13.9959	 
  1483	 0.0273	-13.7438	-1.8501	25.7217	-19.5443	13.9264	 
  1484	-0.1159	-13.6145	34.7203	12.2178	-19.6561	13.9302	 
  1485	-0.1469	-13.4897	-1.8501	25.7217	-19.8024	13.9842	 
  1486	-0.1895	-13.5869	34.7203	12.2178	-19.8799	13.9378	 
  1487	-0.4450	-13.4533	-6.7120	72.6471	-19.9272	13.7679	 
  1488	-0.2243	-13.5361	34.7203	12.2178	-19.8498	13.8143	 
  1489	 0.1242	-13.3274	-6.7120	72.6471	-18.9462	13.9304	 
  1490	 0.7591	-13.3771	-1.8501	25.7217	-18.2319	14.0040	 
  1491	 0.6895	-13.2755	34.7203	12.2178	-18.2620	14.1276	 
  1492	 0.7360	-13.1043	34.7203	12.2178	-18.1588	13.9770	 
  1493	 0.8483	-13.1088	34.7203	12.2178	-18.3395	14.0812	 
  1494	 0.8173	-12.9840	-6.7120	72.6471	-18.4169	14.0349	 
  1495	 0.8212	-12.9100	-6.7120	72.6471	-18.4212	13.9615	 
  1496	 1.2703	-12.9277	34.7203	12.2178	-18.4169	14.0349	 
  1497	 1.3478	-12.8813	34.7203	12.2178	-18.3438	14.0078	 
  1498	 1.0187	-12.7200	-6.7120	72.6471	-18.3825	13.9847	 
  1499	 1.0574	-12.6968	34.7203	12.2178	-18.5331	13.9653	 
  1500	 0.6974	-12.4108	34.7203	12.2178	-18.7224	13.9228	 
  1501	 0.8872	-12.3688	34.7203	12.2178	-18.6923	13.7992	 
  1502	 0.7710	-12.4384	-6.7120	72.6471	-18.9505	13.8570	 
  1503	 0.5542	-12.2815	-6.7120	72.6471	-18.9591	13.7103	 
  1504	 0.5194	-12.2307	34.7203	12.2178	-19.1054	13.7643	 
  1505	 0.6974	-12.4108	-1.8501	25.7217	-19.1829	13.7179	 
  1506	 0.5503	-12.3555	-6.7120	72.6471	-19.4109	13.6522	 
  1507	 0.3684	-12.2495	-1.8501	25.7217	-19.4540	13.5557	 
  1508	 0.5503	-12.3555	34.7203	12.2178	-19.5271	13.5827	 
  1509	 0.8910	-12.2948	-43.2824	86.1510	-18.7053	13.5791	 
  1510	 1.3053	-12.2617	-1.8501	25.7217	-17.9093	13.7724	 
  1511	 1.5725	-12.1734	34.7203	12.2178	-17.5693	13.8343	 
  1512	 1.4332	-11.9701	34.7203	12.2178	-17.5005	13.7339	 
  1513	 1.4332	-11.9701	-1.8501	25.7217	-17.5048	13.6606	 
  1514	 1.7313	-12.0066	-6.7120	72.6471	-17.5823	13.6142	 
  1515	 1.7352	-11.9326	-1.8501	25.7217	-17.6167	13.6644	 
  1516	 1.8862	-11.9138	34.7203	12.2178	-17.4317	13.6336	 
  1517	 1.7081	-11.7338	-1.8501	25.7217	-17.3585	13.6066	 
  1518	 1.8513	-11.8630	34.7203	12.2178	-17.4661	13.6838	 
  1519	 2.0023	-11.8443	-1.8501	25.7217	-17.4360	13.5602	 
  1520	 1.5301	-11.5538	-6.7120	72.6471	-17.6210	13.5910	 
  1521	 1.5997	-11.6554	34.7203	12.2178	-17.7028	13.4713	 
  1522	 1.6733	-11.6830	34.7203	12.2178	-18.0341	13.5561	 
  1523	 1.2358	-11.4433	-6.7120	72.6471	-17.9265	13.4789	 
  1524	 1.4874	-11.6510	-6.7120	72.6471	-18.1503	13.4866	 
  1525	 1.1971	-11.4665	34.7203	12.2178	-18.0858	13.3128	 
  1526	 1.3752	-11.6465	-1.8501	25.7217	-18.2708	13.3437	 
  1527	 1.2668	-11.5681	34.7203	12.2178	-18.4214	13.3243	 
  1528	 1.0771	-11.6101	-6.7120	72.6471	-18.5763	13.2316	 
  1529	 1.2551	-11.7901	34.7203	12.2178	-18.4386	13.0308	 
  1530	 1.6423	-11.5582	34.7203	12.2178	-17.8620	13.3052	 
  1531	 1.8708	-11.4930	34.7203	12.2178	-16.9928	13.4715	 
  1532	 2.0876	-11.6499	-6.7120	72.6471	-16.6572	13.4600	 
  1533	 1.9870	-11.4235	34.7203	12.2178	-16.6271	13.3365	 
  1534	 2.1380	-11.4047	34.7203	12.2178	-16.7003	13.3635	 
  1535	 2.1031	-11.3539	-6.7120	72.6471	-16.6702	13.2399	 
  1536	 2.1418	-11.3307	-6.7120	72.6471	-16.8509	13.3441	 
  1537	 2.2115	-11.4323	-6.7120	72.6471	-16.7777	13.3171	 
  1538	 2.2193	-11.2843	34.7203	12.2178	-16.5196	13.2593	 
  1539	 2.1883	-11.1595	86.2113	-6.7956	-16.5927	13.2863	 
  1540	 2.0722	-11.2291	34.7203	12.2178	-16.7821	13.2437	 
  1541	 2.3277	-11.3627	-6.7120	72.6471	-16.8251	13.1472	 
  1542	 1.7470	-10.9938	34.7203	12.2178	-16.9026	13.1008	 
  1543	 1.9638	-11.1507	-43.2824	86.1510	-17.0187	13.0313	 
  1544	 1.8515	-11.1463	-1.8501	25.7217	-17.1349	12.9617	 
  1545	 1.7353	-11.2158	34.7203	12.2178	-17.2468	12.9656	 
  1546	 1.7702	-11.2666	-6.7120	72.6471	-17.2124	12.9154	 
  1547	 1.6192	-11.2854	-6.7120	72.6471	-17.4017	12.8728	 
  1548	 1.4721	-11.2302	-6.7120	72.6471	-17.5566	12.7801	 
  1549	 1.4333	-11.2534	-6.7120	72.6471	-17.5954	12.7569	 
  1550	 1.4333	-11.2534	-6.7120	72.6471	-17.5954	12.7569	 
  1551	 1.6966	-11.2390	34.7203	12.2178	-17.0360	12.7378	 
  1552	 2.2580	-11.2611	34.7203	12.2178	-16.1281	12.9273	 
  1553	 2.2658	-11.1131	-6.7120	72.6471	-15.4999	12.8078	 
  1554	 2.4865	-11.1960	34.7203	12.2178	-15.5731	12.8348	 
  1555	 2.3742	-11.1916	34.7203	12.2178	-15.7194	12.8888	 
  1556	 2.0064	-11.0535	-6.7120	72.6471	-15.8399	12.7459	 
  1557	 2.5600	-11.2236	34.7203	12.2178	-15.8054	12.6957	 
  1558	 2.5600	-11.2236	34.7203	12.2178	-15.8355	12.8193	 
  1559	 2.2387	-10.9144	34.7203	12.2178	-15.6161	12.7383	 
  1560	 2.4555	-11.0712	34.7203	12.2178	-15.6161	12.7383	 
  1561	 1.9097	-10.7531	86.2113	-6.7956	-15.5387	12.7846	 
  1562	 2.0490	-10.9563	-43.2824	86.1510	-15.4655	12.7576	 
  1563	 2.2310	-11.0623	34.7203	12.2178	-15.5043	12.7344	 
  1564	 2.1148	-11.1319	34.7203	12.2178	-15.6893	12.7653	 
  1565	 2.0103	-10.9795	34.7203	12.2178	-15.7280	12.7421	 
  1566	 1.9677	-11.0767	34.7203	12.2178	-15.6678	12.4950	 
  1567	 1.8476	-11.2203	34.7203	12.2178	-15.8959	12.4292	 
  1568	 1.5573	-11.0358	34.7203	12.2178	-16.0809	12.4601	 
  1569	 1.5573	-11.0358	-6.7120	72.6471	-16.3089	12.3943	 
  1570	 1.4411	-11.1054	-1.8501	25.7217	-16.3907	12.2746	 
  1571	 1.8128	-11.1695	34.7203	12.2178	-15.9432	12.2593	 
  1572	 2.2232	-11.2103	34.7203	12.2178	-14.8890	12.3948	 
  1573	 2.1652	-10.8867	34.7203	12.2178	-14.3641	12.4259	 
  1574	 2.4942	-11.0480	34.7203	12.2178	-14.3297	12.3757	 
  1575	 2.7110	-11.2048	34.7203	12.2178	-14.2996	12.2521	 
  1576	 2.3123	-10.9420	-6.7120	72.6471	-14.4459	12.3061	 
  1577	 2.3897	-10.8956	34.7203	12.2178	-14.4889	12.2096	 
  1578	 2.5291	-11.0988	34.7203	12.2178	-14.2738	12.0552	 
  1579	 2.3858	-10.9696	34.7203	12.2178	-14.4932	12.1362	 
  1580	 2.4324	-10.7984	34.7203	12.2178	-14.5707	12.0898	 
  1581	 2.3549	-10.8448	34.7203	12.2178	-14.5836	11.8697	 
  1582	 2.4285	-10.8724	-43.2824	86.1510	-14.7515	11.5569	 
  1583	 2.3240	-10.7200	34.7203	12.2178	-14.9796	11.4911	 
  1584	 2.1807	-10.5908	34.7203	12.2178	-14.9796	11.4911	 
  1585	 2.0724	-10.5123	34.7203	12.2178	-14.8677	11.4873	 
  1586	 2.2156	-10.6416	-6.7120	72.6471	-14.9021	11.5375	 
  1587	 2.1150	-10.4152	-6.7120	72.6471	-14.7128	11.5800	 
  1588	 2.1576	-10.3180	-6.7120	72.6471	-14.7859	11.6071	 
  1589	 2.3008	-10.4472	-6.7120	72.6471	-14.8677	11.4873	 
  1590	 2.1615	-10.2440	34.7203	12.2178	-14.9538	11.2942	 
  1591	 2.7345	-10.0441	-6.7120	72.6471	-14.3213	11.2481	 
  1592	 3.4082	-10.0706	34.7203	12.2178	-13.5339	11.2947	 
  1593	 3.8342	-9.8155	34.7203	12.2178	-13.1940	11.3566	 
  1594	 4.2872	-9.7592	34.7203	12.2178	-13.1295	11.1828	 
  1595	 4.2564	-8.9177	86.2113	-6.7956	-13.2757	11.2368	 
  1596	 4.8372	-8.5698	-6.7120	72.6471	-13.1122	11.4763	 
  1597	 6.2972	-7.1938	86.2113	-6.7956	-12.7507	11.9051	 
  1598	 8.4078	-4.8547	86.2113	-6.7956	-11.8210	13.7358	 
  1599	10.6073	-3.6808	-6.7120	72.6471	-10.3833	16.5785	 
  1600	12.0672	-2.3048	44.7790	53.6337	-9.2643	18.4517	 
  1601	13.0548	-1.3550	44.7790	53.6337	-9.0877	19.5485	 
  1602	13.3529	-1.3915	132.8404	21.1163	-8.9413	20.1317	 
  1603	11.0643	-2.8337	44.7790	53.6337	-8.8078	20.4947	 
  1604	 6.7930	-6.3235	44.7790	53.6337	-7.8870	20.9044	 
  1605	 3.5325	-8.4195	44.7790	53.6337	-6.6347	21.8663	 
  1606	 2.8512	-7.8242	132.8404	21.1163	-5.1158	22.2800	 
  1607	 1.3990	-9.0523	132.8404	21.1163	-4.6901	20.6235	 
  1608	-2.6285	-12.8977	132.8404	21.1163	-6.7263	15.2281	 
  1609	-3.1086	-12.7552	132.8404	21.1163	-6.8431	11.9727	 
  1610	-4.4948	-13.4421	132.8404	21.1163	-6.8223	 7.8793	 
  1611	-3.5112	-12.5663	44.7790	53.6337	-6.4055	 4.8017	 
  1612	-0.0335	-9.1936	-6.7120	72.6471	-4.9726	 5.6594	 
  1613	 1.9454	-7.2201	58.9464	-23.1163	-5.5190	 5.8987	 
  1614	 0.6175	-6.7970	22.3761	-9.6124	-8.1096	 3.7816	 
  1615	-1.6864	-7.8185	11.2767	-24.2556	-10.5279	 2.6880	 
  1616	-3.7076	-8.4557	-11.9089	-15.6942	-14.8566	 1.5126	 
  1617	-5.5895	-9.2961	-11.9089	-15.6942	-18.8411	 0.4725	 
  1618	-7.8821	-11.5291	-35.1617	-21.6140	-20.4245	 0.2326	 
  1619	-11.5807	-16.2525	-24.2530	-37.5244	-23.8498	-1.4638	 
  1620	-9.8308	-16.4944	-50.1555	-16.0774	-23.9143	-1.2901	 
  1621	-9.9669	-19.0843	-39.2469	-31.9878	-24.8051	-1.8233	 
  1622	-9.8896	-19.7547	-35.1617	-21.6140	-24.7836	-2.0936	 
  1623	-9.6302	-19.8143	-18.1931	-27.8798	-23.9617	-1.4600	 
  1624	-9.3204	-19.6288	-18.1931	-27.8798	-22.3005	 0.1007	 
  1625	-7.1983	-17.7845	-11.9089	-15.6942	-15.0879	 7.1081	 
  1626	-5.5060	-16.2693	-5.9294	 0.8396	-8.3964	11.6091	 
  1627	-3.4537	-15.0402	-30.1555	36.1737	-3.0428	17.5038	 
  1628	-1.5602	-13.9778	-1.8501	25.7217	-1.2519	22.5400	 
  1629	-1.0451	-13.4544	-43.2824	86.1510	-1.6776	24.1965	 
  1630	-0.9058	-13.6576	34.7203	12.2178	 0.4314	27.6534	 
  1631	-1.2891	-13.8155	-6.7120	72.6471	 1.0857	29.2485	 
  1632	-0.9562	-13.9028	-6.7120	72.6471	 0.5521	29.0707	 
  1633	-0.9793	-13.6300	44.7790	53.6337	-0.5366	28.3482	 
  1634	-0.7431	-13.4168	86.2113	-6.7956	-1.5952	27.5022	 
  1635	-0.5300	-12.9309	-6.7120	72.6471	-2.6926	26.6329	 
  1636	 0.2366	-12.6151	34.7203	12.2178	-3.0412	25.7871	 
  1637	 0.6743	-12.1380	44.7790	53.6337	-3.2092	24.8371	 
  1638	 0.6355	-12.1612	-1.8501	25.7217	-3.5880	24.1148	 
  1639	 0.4419	-12.2771	34.7203	12.2178	-4.3240	23.0372	 
  1640	 0.7943	-11.9944	34.7203	12.2178	-4.8490	22.3689	 
  1641	 1.4061	-11.7713	34.7203	12.2178	-5.3008	22.3109	 
  1642	 1.3752	-11.6465	-6.7120	72.6471	-4.8791	22.4925	 
  1643	 1.5301	-11.5538	-6.7120	72.6471	-4.4100	22.8441	 
  1644	 1.6153	-11.3594	34.7203	12.2178	-4.2939	22.9136	 
  1645	 1.5108	-11.2070	-6.7120	72.6471	-3.9927	22.9523	 
  1646	 1.2397	-11.3693	34.7203	12.2178	-3.6441	23.1610	 
  1647	 1.3442	-11.5217	-6.7120	72.6471	-3.3429	23.1997	 
  1648	 1.7392	-11.1418	-6.7120	72.6471	-2.8180	23.2307	 
  1649	 2.1922	-11.0855	-6.7120	72.6471	-2.0219	23.4241	 
  1650	 2.0529	-10.8823	-6.7120	72.6471	-1.5788	23.3354	 
  1651	 2.4594	-10.9972	34.7203	12.2178	-1.9016	22.9298	 
  1652	 2.3897	-10.8956	34.7203	12.2178	-2.5599	22.5357	 
  1653	 2.3975	-10.7476	-6.7120	72.6471	-2.9989	22.0606	 
  1654	 2.0414	-10.3875	86.2113	-6.7956	-3.6788	21.9368	 
  1655	 2.1150	-10.4152	-6.7120	72.6471	-3.9284	21.5042	 
  1656	 2.0801	-10.3643	-6.7120	72.6471	-4.0231	21.1644	 
  1657	 2.1924	-10.3688	-6.7120	72.6471	-4.2899	21.0754	 
  1658	 2.0570	-10.0916	34.7203	12.2178	-4.5868	21.1101	 
  1659	 2.1305	-10.1192	34.7203	12.2178	-4.8966	20.9246	 
  1660	 1.9137	-9.9623	34.7203	12.2178	-5.0902	20.8087	 
  1661	 2.0299	-9.8928	86.2113	-6.7956	-5.4646	20.7970	 
  1662	 2.0029	-9.6940	34.7203	12.2178	-5.7314	20.7081	 
  1663	 1.8635	-9.4907	34.7203	12.2178	-5.8088	20.6618	 
  1664	 1.6429	-9.4079	34.7203	12.2178	-6.0369	20.5960	 
  1665	 1.7512	-9.4863	34.7203	12.2178	-6.3338	20.6307	 
  1666	 1.6197	-9.1351	34.7203	12.2178	-6.3424	20.4839	 
  1667	 1.6545	-9.1859	34.7203	12.2178	-6.5274	20.5148	 
  1668	 1.6623	-9.0379	-6.7120	72.6471	-6.8200	20.6228	 
  1669	 1.9334	-8.8756	44.7790	53.6337	-6.2563	20.6771	 
  1670	 2.3554	-8.6945	-6.7120	72.6471	-5.4215	20.8936	 
  1671	 2.8394	-8.7630	34.7203	12.2178	-5.1203	20.9323	 
  1672	 2.6226	-8.6061	34.7203	12.2178	-5.3484	20.8666	 
  1673	 2.9633	-8.5454	86.2113	-6.7956	-5.3570	20.7198	 
  1674	 3.0834	-8.4018	-6.7120	72.6471	-5.4732	20.6503	 
  1675	 2.9750	-8.3234	-6.7120	72.6471	-5.6625	20.6077	 
  1676	 2.9557	-7.9766	-6.7120	72.6471	-5.8045	20.7351	 
  1677	 2.8512	-7.8242	-6.7120	72.6471	-5.5894	20.5807	 
  1678	 3.1493	-7.8607	-6.7120	72.6471	-5.7658	20.7583	 
  1679	 3.0836	-7.6851	86.2113	-6.7956	-5.9207	20.6656	 
  1680	 3.1881	-7.8375	86.2113	-6.7956	-6.2563	20.6771	 
  1681	 2.9829	-7.4587	34.7203	12.2178	-6.2219	20.6269	 
  1682	 3.1339	-7.4399	34.7203	12.2178	-6.5188	20.6615	 
  1683	 2.9946	-7.2367	-6.7120	72.6471	-6.6349	20.5920	 
  1684	 2.8553	-7.0335	-6.7120	72.6471	-6.8200	20.6228	 
  1685	 3.0024	-7.0887	44.7790	53.6337	-6.8156	20.6962	 
  1686	 3.0489	-6.9175	-6.7120	72.6471	-6.8630	20.5262	 
  1687	 2.9366	-6.9131	86.2113	-6.7956	-7.0867	20.5339	 
  1688	 3.1612	-6.9219	34.7203	12.2178	-7.1212	20.5841	 
  1689	 3.4322	-6.7596	44.7790	53.6337	-6.4800	20.6847	 
  1690	 3.7459	-6.5001	34.7203	12.2178	-5.6840	20.8780	 
  1691	 4.1176	-6.5641	34.7203	12.2178	-5.4990	20.8472	 
  1692	 4.2376	-6.4206	-6.7120	72.6471	-5.5291	20.9708	 
  1693	 4.4312	-6.3046	34.7203	12.2178	-5.5334	20.8974	 
  1694	 4.3655	-6.1290	34.7203	12.2178	-5.6195	20.7043	 
  1695	 4.0403	-5.8938	86.2113	-6.7956	-5.7270	20.7815	 
  1696	 4.4894	-5.9115	-6.7120	72.6471	-5.6152	20.7777	 
  1697	 4.2804	-5.6066	34.7203	12.2178	-5.4646	20.7970	 
  1698	 4.4663	-5.6387	-6.7120	72.6471	-5.6109	20.8510	 
  1699	 4.1798	-5.3802	-6.7120	72.6471	-5.7571	20.9051	 
  1700	 4.4083	-5.3151	-6.7120	72.6471	-5.9766	20.9861	 
  1701	 4.4044	-5.3891	44.7790	53.6337	-6.0196	20.8895	 
  1702	 4.1837	-5.3062	86.2113	-6.7956	-6.1014	20.7698	 
  1703	 4.2263	-5.2090	-6.7120	72.6471	-6.1745	20.7968	 
  1704	 4.1257	-4.9826	34.7203	12.2178	-6.3208	20.8508	 
  1705	 4.4548	-5.1439	-6.7120	72.6471	-6.3939	20.8778	 
  1706	 4.1954	-5.0842	44.7790	53.6337	-6.5833	20.8353	 
  1707	 4.2728	-5.0379	34.7203	12.2178	-6.5144	20.7349	 
  1708	 4.0599	-4.8070	44.7790	53.6337	-6.7339	20.8159	 
  1709	 4.2923	-4.6679	-6.7120	72.6471	-6.2778	20.9474	 
  1710	 4.7762	-4.7364	86.2113	-6.7956	-5.4086	21.1137	 
  1711	 5.4499	-4.7629	34.7203	12.2178	-4.8062	21.1911	 
  1712	 5.4189	-4.6381	-6.7120	72.6471	-4.8449	21.1679	 
  1713	 5.4577	-4.6149	-6.7120	72.6471	-4.8837	21.1448	 
  1714	 5.2487	-4.3101	-6.7120	72.6471	-4.8923	20.9980	 
  1715	 5.4771	-4.2449	-6.7120	72.6471	-5.0386	21.0520	 
  1716	 5.5855	-4.3234	86.2113	-6.7956	-4.9310	20.9748	 
  1717	 5.4035	-4.2173	44.7790	53.6337	-4.9697	20.9517	 
  1718	 5.6320	-4.1522	-6.7120	72.6471	-4.9353	20.9015	 
  1719	 5.7056	-4.1798	34.7203	12.2178	-5.0816	20.9555	 
  1720	 5.3494	-3.8197	34.7203	12.2178	-5.3398	21.0133	 
  1721	 5.3494	-3.8197	-43.2824	86.1510	-5.3914	20.7700	 
  1722	 5.7056	-4.1798	86.2113	-6.7956	-5.6453	20.9012	 
  1723	 5.1714	-3.6397	34.7203	12.2178	-5.6883	20.8047	 
  1724	 5.2759	-3.7921	86.2113	-6.7956	-5.8647	20.9823	 
  1725	 5.4347	-3.6254	-6.7120	72.6471	-5.9508	20.7891	 
  1726	 5.8684	-3.2223	86.2113	-6.7956	-5.9121	20.8123	 
  1727	 6.7281	-2.5641	-6.7120	72.6471	-5.8905	21.1792	 
  1728	 8.9121	-0.9694	44.7790	53.6337	-5.5333	21.5346	 
  1729	10.8718	 1.3509	44.7790	53.6337	-5.0985	22.5735	 
  1730	12.9704	 2.0344	-6.7120	72.6471	-5.1671	23.9482	 
  1731	13.8338	 2.0499	44.7790	53.6337	-4.9647	24.8481	 
  1732	13.2179	 1.0360	44.7790	53.6337	-4.4742	24.9293	 
  1733	10.2593	-1.7392	86.2113	-6.7956	-3.3253	25.4047	 
  1734	 8.5051	-3.0048	132.8404	21.1163	-1.3199	27.1006	 
  1735	 6.6966	-4.5896	132.8404	21.1163	-0.0207	26.3210	 
  1736	 4.7525	-6.6139	132.8404	21.1163	 2.2465	24.2094	 
  1737	-2.0319	-11.5371	44.7790	53.6337	 4.9006	21.0553	 
  1738	-4.3243	-13.0533	44.7790	53.6337	 5.3819	17.8039	 
  1739	-2.2291	-10.2935	86.2113	-6.7956	 2.5115	14.7407	 
  1740	 0.4122	-7.1350	22.3761	-9.6124	-1.0428	13.3918	 
  1741	 0.4202	-6.2702	-11.9089	-15.6942	-5.0791	11.4712	 
  1742	-1.6978	-6.6070	-31.5106	-8.4561	-9.8597	 9.6006	 
  1743	-3.6493	-7.3457	-35.1617	-21.6140	-15.0406	 7.2780	 
  1744	-5.4846	-8.0149	-31.5106	-8.4561	-17.2952	 7.0610	 
  1745	-9.1633	-10.2181	-31.5106	-8.4561	-17.9836	 7.4277	 
  1746	-14.8563	-16.4942	-35.1617	-21.6140	-19.0164	 6.3847	 
  1747	-17.2461	-20.5771	-35.1617	-21.6140	-19.9202	 4.9942	 
  1748	-14.8842	-19.8793	-35.1617	-21.6140	-18.0226	 6.1301	 
  1749	-12.7546	-19.3205	-31.5106	-8.4561	-10.7284	11.9830	 
  1750	-11.5308	-18.1576	-11.9089	-15.6942	-7.1565	15.5369	 
  1751	-9.9586	-16.7860	-11.9089	-15.6942	-3.6405	19.4113	 
  1752	-7.4338	-15.1306	22.3761	-9.6124	 1.6274	27.0244	 
  1753	-5.4164	-13.8507	22.3761	-9.6124	 5.8706	31.1925	 
  1754	-3.5499	-12.5895	-1.8501	25.7217	 6.2499	34.4635	 
  1755	-2.6167	-11.9589	-6.7120	72.6471	 7.8035	36.1013	 
  1756	-1.9506	-11.4167	34.7203	12.2178	 6.2284	34.7338	 
  1757	-2.0434	-11.0423	-6.7120	72.6471	 7.7818	35.0973	 
  1758	-1.8807	-10.8015	34.7203	12.2178	 7.7517	35.2208	 
  1759	-1.6562	-10.8104	-6.7120	72.6471	 7.8033	35.4641	 
  1760	-1.7761	-10.2372	86.2113	-6.7956	 7.6785	35.2478	 
  1761	-1.3618	-10.2041	34.7203	12.2178	 6.6845	34.8652	 
  1762	-1.4780	-10.2736	44.7790	53.6337	 5.8325	34.3552	 
  1763	-1.4392	-10.2504	-6.7120	72.6471	 4.0983	33.4587	 
  1764	-1.5941	-10.3432	34.7203	12.2178	 2.0672	31.9597	 
  1765	-1.7220	-10.6348	34.7203	12.2178	-0.2307	30.3718	 
  1766	-1.5749	-10.6900	-6.7120	72.6471	-2.6535	28.5676	 
  1767	-1.6019	-10.4912	34.7203	12.2178	-4.1898	27.2233	 
  1768	-1.6212	-10.1444	-6.7120	72.6471	-5.5669	26.0450	 
  1769	-1.6482	-9.9456	-6.7120	72.6471	-6.4232	25.4616	 
  1770	-1.1256	-9.9909	-6.7120	72.6471	-6.4017	25.1913	 
  1771	-0.3667	-9.8231	-6.7120	72.6471	-5.4551	25.4040	 
  1772	 0.3652	-9.4564	44.7790	53.6337	-4.1599	25.8253	 
  1773	 0.6014	-9.2433	34.7203	12.2178	-3.9189	26.1112	 
  1774	 0.8764	-9.0070	34.7203	12.2178	-3.6220	26.0765	 
  1775	 1.1126	-8.7938	-43.2824	86.1510	-3.7296	26.1537	 
  1776	 0.9345	-8.6138	-6.7120	72.6471	-4.0265	26.1884	 
  1777	 0.8958	-8.6370	-6.7120	72.6471	-4.0695	26.0918	 
  1778	 1.1204	-8.6458	34.7203	12.2178	-4.2933	26.0995	 
  1779	 1.2675	-8.7011	34.7203	12.2178	-4.3449	25.8562	 
  1780	 0.8417	-8.2394	-43.2824	86.1510	-4.7710	25.6012	 
  1781	 0.9540	-8.2438	34.7203	12.2178	-5.4637	25.2573	 
  1782	 0.9656	-8.0218	86.2113	-6.7956	-5.7348	25.0950	 
  1783	 0.6483	-7.6386	34.7203	12.2178	-6.0447	24.9095	 
  1784	 0.6948	-7.4674	-6.7120	72.6471	-6.3803	24.9210	 
  1785	 0.8845	-7.4255	34.7203	12.2178	-6.5653	24.9518	 
  1786	 0.9349	-7.1803	34.7203	12.2178	-6.6471	24.8321	 
  1787	 1.0588	-6.9627	-6.7120	72.6471	-6.8751	24.7664	 
  1788	 0.6214	-6.7230	34.7203	12.2178	-7.2150	24.7045	 
  1789	 0.9621	-6.6623	34.7203	12.2178	-7.4087	24.5885	 
  1790	 1.4190	-6.5320	86.2113	-6.7956	-7.1032	24.7006	 
  1791	 2.0230	-6.4569	-6.7120	72.6471	-6.2082	24.6700	 
  1792	 2.3328	-6.2714	34.7203	12.2178	-5.7952	24.7049	 
  1793	 2.3832	-6.0262	44.7790	53.6337	-5.7952	24.7049	 
  1794	 2.9368	-6.1963	-6.7120	72.6471	-5.8726	24.6586	 
  1795	 2.7665	-5.8683	-6.7120	72.6471	-6.0619	24.6160	 
  1796	 2.5885	-5.6883	86.2113	-6.7956	-6.3588	24.6507	 
  1797	 2.7472	-5.5215	-6.7120	72.6471	-6.2125	24.5967	 
  1798	 2.8363	-5.2532	-6.7120	72.6471	-6.2125	24.5967	 
  1799	 2.7667	-5.1515	34.7203	12.2178	-6.3588	24.6507	 
  1800	 2.7357	-5.0267	-1.8501	25.7217	-6.5094	24.6313	 
  1801	 3.0765	-4.9660	-6.7120	72.6471	-6.6213	24.6351	 
  1802	 3.0068	-4.8644	-6.7120	72.6471	-6.8063	24.6660	 
  1803	 2.8287	-4.6844	34.7203	12.2178	-6.8493	24.5694	 
  1804	 2.6933	-4.4072	34.7203	12.2178	-7.1075	24.6273	 
  1805	 2.8056	-4.4116	-6.7120	72.6471	-7.0688	24.6504	 
  1806	 2.7746	-4.2868	34.7203	12.2178	-7.0731	24.5771	 
  1807	 2.8521	-4.2404	34.7203	12.2178	-7.3656	24.6851	 
  1808	 2.8134	-4.2636	-6.7120	72.6471	-7.4431	24.6387	 
  1809	 2.9644	-4.2448	-6.7120	72.6471	-7.5507	24.7159	 
  1810	 3.4135	-4.2625	34.7203	12.2178	-6.9827	24.8436	 
  1811	 3.5374	-4.0450	34.7203	12.2178	-6.1221	24.8631	 
  1812	 4.0292	-3.9655	-6.7120	72.6471	-5.7822	24.9250	 
  1813	 4.0330	-3.8915	34.7203	12.2178	-5.8166	24.9752	 
  1814	 4.0021	-3.7667	34.7203	12.2178	-6.1092	25.0833	 
  1815	 3.9363	-3.5911	-6.7120	72.6471	-6.3372	25.0175	 
  1816	 4.0873	-3.5723	-6.7120	72.6471	-6.1910	24.9635	 
  1817	 4.1338	-3.4011	34.7203	12.2178	-6.1479	25.0601	 
  1818	 4.3197	-3.4331	34.7203	12.2178	-6.1823	25.1103	 
  1819	 4.3197	-3.4331	86.2113	-6.7956	-6.0791	24.9597	 
  1820	 4.3274	-3.2851	-6.7120	72.6471	-6.2598	25.0639	 
  1821	 4.2190	-3.2067	-6.7120	72.6471	-6.3760	24.9944	 
  1822	 4.1842	-3.1559	44.7790	53.6337	-6.5997	25.0020	 
  1823	 4.0023	-3.0499	86.2113	-6.7956	-6.6384	24.9788	 
  1824	 4.0836	-2.9295	44.7790	53.6337	-6.7804	25.1062	 
  1825	 3.7933	-2.7451	34.7203	12.2178	-6.6815	24.8823	 
  1826	 3.8668	-2.7727	-6.7120	72.6471	-6.7202	24.8591	 
  1827	 3.8359	-2.6479	-6.7120	72.6471	-7.0816	25.0675	 
  1828	 4.0953	-2.7075	34.7203	12.2178	-7.1160	25.1177	 
  1829	 4.3934	-2.7440	34.7203	12.2178	-6.4104	25.0446	 
  1830	 4.6644	-2.5817	44.7790	53.6337	-5.5412	25.2109	 
  1831	 5.1523	-2.5762	34.7203	12.2178	-5.0894	25.2690	 
  1832	 5.0865	-2.4005	86.2113	-6.7956	-5.2314	25.3964	 
  1833	 4.9781	-2.3221	34.7203	12.2178	-5.2744	25.2998	 
  1834	 4.9433	-2.2713	-6.7120	72.6471	-5.5326	25.3576	 
  1835	 5.0556	-2.2757	-6.7120	72.6471	-5.3863	25.3036	 
  1836	 4.9937	-2.0261	-6.7120	72.6471	-5.4938	25.3808	 
  1837	 5.0285	-2.0770	-6.7120	72.6471	-5.4938	25.3808	 
  1838	 5.1369	-2.1554	-6.7120	72.6471	-5.5326	25.3576	 
  1839	 5.1060	-2.0306	-6.7120	72.6471	-5.5713	25.3345	 
  1840	 4.7808	-1.7953	44.7790	53.6337	-5.7907	25.4155	 
  1841	 4.9627	-1.9013	86.2113	-6.7956	-5.9801	25.3729	 
  1842	 4.8543	-1.8229	34.7203	12.2178	-6.0575	25.3266	 
  1843	 4.9047	-1.5777	34.7203	12.2178	-5.9887	25.2262	 
  1844	 5.2340	-1.0222	86.2113	-6.7956	-5.9500	25.2494	 
  1845	 7.5923	 1.0352	44.7790	53.6337	-5.9844	25.2996	 
  1846	11.9254	 3.5586	86.2113	-6.7956	-6.0230	25.9136	 
  1847	15.0505	 5.9318	44.7790	53.6337	-6.9652	26.4114	 
  1848	17.9819	 8.1891	44.7790	53.6337	-7.6923	26.7549	 
  1849	19.4302	 9.3432	-6.7120	72.6471	-6.5088	27.8172	 
  1850	15.4490	 4.9522	44.7790	53.6337	-4.1249	28.9610	 
  1851	10.7630	-0.0042	44.7790	53.6337	-1.7541	29.2476	 
  1852	 8.2303	-2.5244	132.8404	21.1163	 0.5307	29.3410	 
  1853	 6.7122	-4.2936	132.8404	21.1163	 2.8411	28.6003	 
  1854	 1.2441	-9.1450	132.8404	21.1163	 7.1092	28.1113	 
  1855	-6.4194	-15.0964	44.7790	53.6337	 9.3849	25.5093	 
  1856	-7.7670	-15.7601	174.2727	-39.3130	 7.5036	20.2066	 
  1857	-6.1869	-14.2405	86.2113	-6.7956	 3.0667	15.9225	 
  1858	-2.5153	-9.3183	22.3761	-9.6124	-1.9513	10.0164	 
  1859	 0.6643	-5.1923	-29.1150	 9.4011	-6.9907	 5.0177	 
  1860	-1.3839	-5.6307	-11.9089	-15.6942	-10.5278	 3.3252	 
  1861	-3.6839	-6.5782	-31.5106	-8.4561	-13.4754	 2.1271	 
  1862	-6.0305	-7.6968	-31.5106	-8.4561	-14.7576	 1.9259	 
  1863	-11.4015	-11.4152	-31.5106	-8.4561	-17.7999	 0.3879	 
  1864	-14.3097	-13.9453	-31.5106	-8.4561	-17.9548	 0.2952	 
  1865	-17.4392	-18.5428	-31.5106	-8.4561	-17.6233	 1.4847	 
  1866	-16.3010	-19.0078	-31.5106	-8.4561	-17.0164	 2.2727	 
  1867	-14.1559	-18.1531	-11.9089	-15.6942	-15.2002	 5.2004	 
  1868	-11.2789	-16.9317	-11.9089	-15.6942	-12.2521	 8.9472	 
  1869	-8.3243	-14.9472	-29.1150	 9.4011	-6.3173	16.4639	 
  1870	-6.9960	-13.9367	-30.1555	36.1737	 1.0461	24.7651	 
  1871	-5.7260	-13.3194	22.3761	-9.6124	 6.8522	33.9037	 
  1872	-5.3812	-12.4679	34.7203	12.2178	14.0174	40.7412	 
  1873	-5.1255	-11.8848	34.7203	12.2178	19.0436	44.2454	 
  1874	-4.6996	-11.6297	86.2113	-6.7956	22.8089	46.6409	 
  1875	-4.5562	-11.0422	44.7790	53.6337	25.0509	48.5493	 
  1876	-4.1224	-10.6391	44.7790	53.6337	25.8256	49.6501	 
  1877	-3.8745	-10.2040	86.2113	-6.7956	25.6752	50.2679	 
  1878	-3.6266	-9.7688	86.2113	-6.7956	24.9867	49.9974	 
  1879	-3.7582	-9.4176	44.7790	53.6337	24.1002	49.5375	 
  1880	-3.0845	-9.4442	86.2113	-6.7956	22.2843	48.5213	 
  1881	-3.3980	-8.9869	44.7790	53.6337	18.9882	47.1146	 
  1882	-3.1812	-9.1437	-6.7120	72.6471	14.6593	45.3021	 
  1883	-2.9876	-9.0278	34.7203	12.2178	 9.9215	42.2537	 
  1884	-2.5733	-8.9947	44.7790	53.6337	 6.3025	39.8042	 
  1885	-2.4726	-8.5043	-6.7120	72.6471	 3.2988	37.6522	 
  1886	-1.8415	-8.6280	34.7203	12.2178	 0.8674	35.7013	 
  1887	-1.3574	-7.9798	-6.7120	72.6471	-0.4150	34.2257	 
  1888	-0.5907	-7.6639	34.7203	12.2178	-0.1699	33.3106	 
  1889	-0.1918	-7.2100	34.7203	12.2178	-0.3120	32.8008	 
  1890	 0.4665	-6.8158	-6.7120	72.6471	-0.6262	32.5420	 
  1891	 1.0434	-6.5419	44.7790	53.6337	-0.8026	32.7195	 
  1892	 1.5081	-6.2636	34.7203	12.2178	-0.7036	32.4956	 
  1893	 1.6863	-5.7269	-6.7120	72.6471	-0.5358	32.8084	 
  1894	 2.0348	-5.5182	-6.7120	72.6471	-0.1141	32.9901	 
  1895	 2.2711	-5.3050	34.7203	12.2178	 0.4625	33.2644	 
  1896	 2.4608	-5.2631	86.2113	-6.7956	-0.1141	32.9901	 
  1897	 2.0504	-5.2222	34.7203	12.2178	-0.2002	32.7970	 
  1898	 1.6244	-5.4773	34.7203	12.2178	 0.0021	33.0596	 
  1899	 1.0940	-5.5800	-6.7120	72.6471	-0.1400	32.5498	 
  1900	 0.8346	-5.5203	86.2113	-6.7956	-1.0608	32.1402	 
  1901	 0.4242	-5.4795	34.7203	12.2178	-1.6762	31.8426	 
  1902	 0.5482	-5.2619	44.7790	53.6337	-1.8741	31.6534	 
  1903	 0.3662	-5.1559	34.7203	12.2178	-2.1839	31.4679	 
  1904	 0.5598	-5.0399	-6.7120	72.6471	-2.5583	31.4562	 
  1905	 0.4553	-4.8875	-6.7120	72.6471	-2.6056	31.2863	 
  1906	 0.9858	-4.7848	34.7203	12.2178	-1.9688	31.3135	 
  1907	 1.2956	-4.5993	34.7203	12.2178	-1.1427	31.3833	 
  1908	 1.5550	-4.6589	34.7203	12.2178	-1.0395	31.2327	 
  1909	 1.5008	-4.2613	44.7790	53.6337	-1.3320	31.3407	 
  1910	 1.8377	-4.2746	-6.7120	72.6471	-1.3450	31.1206	 
  1911	 1.8455	-4.1266	86.2113	-6.7956	-1.5386	31.0047	 
  1912	 1.9655	-3.9830	44.7790	53.6337	-1.8441	30.8926	 
  1913	 1.8340	-3.6318	34.7203	12.2178	-1.8054	30.9158	 
  1914	 1.8069	-3.4330	44.7790	53.6337	-1.7323	30.8888	 
  1915	 2.1050	-3.4695	-6.7120	72.6471	-1.8441	30.8926	 
  1916	 2.1476	-3.3723	34.7203	12.2178	-2.0765	30.7535	 
  1917	 2.1245	-3.0995	-6.7120	72.6471	-2.4251	30.5449	 
  1918	 1.9542	-2.7715	44.7790	53.6337	-2.5413	30.4753	 
  1919	 2.0239	-2.8731	-6.7120	72.6471	-2.6875	30.5293	 
  1920	 2.1749	-2.8543	-6.7120	72.6471	-2.9113	30.5370	 
  1921	 1.9659	-2.5495	44.7790	53.6337	-2.8381	30.5100	 
  1922	 1.9349	-2.4247	-6.7120	72.6471	-2.9500	30.5138	 
  1923	 1.9736	-2.4015	-6.7120	72.6471	-3.0748	30.2975	 
  1924	 1.9775	-2.3275	-6.7120	72.6471	-3.1867	30.3013	 
  1925	 2.3957	-2.2204	44.7790	53.6337	-2.5025	30.4985	 
  1926	 2.9997	-2.1453	34.7203	12.2178	-1.5258	30.5877	 
  1927	 3.0810	-2.0250	44.7790	53.6337	-1.1859	30.6495	 
  1928	 3.1972	-1.9554	-6.7120	72.6471	-1.2590	30.6766	 
  1929	 3.3869	-1.9134	86.2113	-6.7956	-1.1558	30.5260	 
  1930	 3.6889	-1.8759	-6.7120	72.6471	-1.3064	30.5066	 
  1931	 3.4644	-1.8670	34.7203	12.2178	-1.5258	30.5877	 
  1932	 3.6232	-1.7003	-6.7120	72.6471	-1.3408	30.5568	 
  1933	 3.4529	-1.3723	-6.7120	72.6471	-1.3021	30.5800	 
  1934	 3.4916	-1.3491	-6.7120	72.6471	-1.2676	30.5298	 
  1935	 3.3910	-1.1227	-6.7120	72.6471	-1.4527	30.5606	 
  1936	 3.3562	-1.0719	-6.7120	72.6471	-1.3494	30.4101	 
  1937	 3.5033	-1.1271	44.7790	53.6337	-1.5732	30.4177	 
  1938	 3.3910	-1.1227	-6.7120	72.6471	-1.8356	30.4022	 
  1939	 3.4684	-1.0763	-6.7120	72.6471	-1.8012	30.3520	 
  1940	 3.2982	-0.7483	-6.7120	72.6471	-1.9819	30.4562	 
  1941	 3.4453	-0.8035	34.7203	12.2178	-1.9862	30.3828	 
  1942	 3.4027	-0.9007	34.7203	12.2178	-2.0981	30.3867	 
  1943	 3.1201	-0.5682	86.2113	-6.7956	-2.2530	30.2939	 
  1944	 3.1240	-0.4942	86.2113	-6.7956	-2.3649	30.2978	 
  1945	 3.0505	-0.4666	-6.7120	72.6471	-2.1842	30.1935	 
  1946	 3.8325	-0.5716	86.2113	-6.7956	-1.5387	30.3675	 
  1947	 4.1423	-0.3861	-6.7120	72.6471	-0.6265	30.6304	 
  1948	 4.4830	-0.3253	-6.7120	72.6471	-0.1834	30.5418	 
  1949	 4.5295	-0.1541	-6.7120	72.6471	-0.3340	30.5224	 
  1950	 4.7192	-0.1122	-6.7120	72.6471	-0.5190	30.5532	 
  1951	 4.6961	 0.1606	-6.7120	72.6471	-0.4889	30.4297	 
  1952	 5.3583	 0.6289	86.2113	-6.7956	-0.4114	30.4760	 
  1953	 7.8676	 2.7050	44.7790	53.6337	-0.3469	30.3023	 
  1954	13.4363	 7.3301	86.2113	-6.7956	-0.1318	30.1479	 
  1955	18.7068	11.9916	-6.7120	72.6471	-1.1645	29.7421	 
  1956	21.1812	13.4018	86.2113	-6.7956	-3.2429	28.7103	 
  1957	21.0030	12.8651	44.7790	53.6337	-4.3488	28.3315	 
  1958	19.3840	10.6055	44.7790	53.6337	-4.2842	28.7949	 
  1959	14.0474	 4.6861	44.7790	53.6337	-2.6963	29.7454	 
  1960	 8.4941	-0.3597	132.8404	21.1163	-0.3597	30.7193	 
  1961	 3.5954	-4.3685	132.8404	21.1163	 1.3612	30.1213	 
  1962	-0.4358	-7.5712	132.8404	21.1163	 3.4176	28.2375	 
  1963	-7.3481	-12.7859	132.8404	21.1163	 9.5790	28.1739	 
  1964	-10.6047	-14.8080	132.8404	21.1163	11.5750	25.9000	 
  1965	-10.3877	-14.2480	44.7790	53.6337	 6.9226	19.2217	 
  1966	-8.7069	-12.2381	-1.8501	25.7217	-0.8233	13.9479	 
  1967	-3.6450	-5.8382	-29.1150	 9.4011	-11.5988	 5.4449	 
  1968	-1.4219	-2.7868	-11.9089	-15.6942	-17.3565	 1.5736	 
  1969	-3.4122	-3.5488	-50.1555	-16.0774	-22.3483	-1.9808	 
  1970	-5.7897	-4.5426	-31.5106	-8.4561	-23.8457	-2.6648	 
  1971	-9.4993	-6.6210	-35.1617	-21.6140	-23.7080	-2.2284	 
  1972	-16.6324	-12.4697	-35.1617	-21.6140	-23.6131	-1.2513	 
  1973	-19.6572	-16.5029	-35.1617	-21.6140	-23.9875	-1.2630	 
  1974	-17.0475	-16.0866	-31.5106	-8.4561	-15.9832	 5.2272	 
  1975	-15.0340	-14.8807	-11.9089	-15.6942	-12.6868	 8.5454	 
  1976	-12.0716	-12.7482	-1.8501	25.7217	-9.3033	17.1542	 
  1977	-9.1053	-10.5417	-1.8501	25.7217	-5.0256	21.2722	 
  1978	-6.1081	-8.4600	-6.7120	72.6471	-1.1564	27.3401	 
  1979	-4.3152	-7.1712	-6.7120	72.6471	 3.2162	33.0723	 
  1980	-4.0517	-6.4401	44.7790	53.6337	 2.5279	33.4389	 
  1981	-4.0943	-6.5373	34.7203	12.2178	 0.5696	30.6385	 
  1982	-3.8464	-6.1022	44.7790	53.6337	-2.0899	27.9847	 
  1983	-3.4166	-5.7731	-6.7120	72.6471	-4.7839	25.3811	 
  1984	-2.9753	-5.9387	-6.7120	72.6471	-7.6112	23.0515	 
  1985	-2.9675	-5.7908	44.7790	53.6337	-10.2793	20.8881	 
  1986	-2.4796	-5.7853	-6.7120	72.6471	-12.5127	19.1265	 
  1987	-1.8369	-5.6870	44.7790	53.6337	-13.0292	17.9678	 
  1988	-1.4458	-5.3811	86.2113	-6.7956	-12.2936	17.1339	 
  1989	-0.8031	-5.2828	-6.7120	72.6471	-12.3885	16.1569	 
  1990	-0.6791	-5.0653	-6.7120	72.6471	-12.9479	15.5388	 
  1991	-0.2222	-4.9350	-43.2824	86.1510	-13.4816	14.7239	 
  1992	-0.0169	-4.5970	34.7203	12.2178	-14.0970	14.4263	 
  1993	 0.3045	-4.1895	44.7790	53.6337	-14.0712	14.2294	 
  1994	 0.6452	-4.1288	34.7203	12.2178	-14.1013	14.3529	 
  1995	 0.8815	-3.9156	-6.7120	72.6471	-13.9507	14.3723	 
  1996	 1.2338	-3.6329	-6.7120	72.6471	-13.9119	14.3955	 
  1997	 1.1216	-3.6285	-43.2824	86.1510	-13.9076	14.4688	 
  1998	 1.1255	-3.5545	-6.7120	72.6471	-14.1142	14.1328	 
  1999	 1.1642	-3.5313	-6.7120	72.6471	-14.7123	14.1288	 
  2000	 1.1720	-3.3833	34.7203	12.2178	-14.4972	13.9744	 
  2001	 0.7499	-3.5644	-6.7120	72.6471	-14.8414	13.8391	 
  2002	 0.5215	-3.6296	34.7203	12.2178	-15.2287	13.6073	 
  2003	 0.4362	-3.8239	-6.7120	72.6471	-15.6375	13.6457	 
  2004	 0.1420	-3.7135	34.7203	12.2178	-15.6848	13.4758	 
  2005	 0.2930	-3.6947	34.7203	12.2178	-15.3062	13.5609	 
  2006	 0.5292	-3.4816	34.7203	12.2178	-14.4973	13.3372	 
  2007	 0.9048	-3.4717	34.7203	12.2178	-14.0111	13.3451	 
  2008	 0.9552	-3.2265	44.7790	53.6337	-14.1488	13.5458	 
  2009	 0.9281	-3.0277	-6.7120	72.6471	-14.1143	13.4956	 
  2010	 0.8546	-3.0001	-6.7120	72.6471	-14.4499	13.5071	 
  2011	 1.2998	-3.0917	-6.7120	72.6471	-14.4242	13.3102	 
  2012	 0.9050	-2.7549	-6.7120	72.6471	-14.5705	13.3642	 
  2013	 1.1256	-2.8377	34.7203	12.2178	-14.5791	13.2174	 
  2014	 1.2070	-2.7173	34.7203	12.2178	-14.8803	13.1787	 
  2015	 1.1373	-2.6157	34.7203	12.2178	-15.1514	13.0164	 
  2016	 0.9283	-2.3109	34.7203	12.2178	-15.5688	12.9082	 
  2017	 1.0057	-2.2645	34.7203	12.2178	-15.8743	12.7961	 
  2018	 0.9012	-2.1121	34.7203	12.2178	-16.0292	12.7034	 
  2019	 0.9361	-2.1629	34.7203	12.2178	-16.2486	12.7844	 
  2020	 1.0910	-2.0702	34.7203	12.2178	-16.3648	12.7148	 
  2021	 0.9865	-1.9177	-6.7120	72.6471	-16.6229	12.7727	 
  2022	 1.0678	-1.7974	-6.7120	72.6471	-16.5240	12.5487	 
  2023	 1.2963	-1.7322	34.7203	12.2178	-17.0016	12.6876	 
  2024	 1.1918	-1.5798	-1.8501	25.7217	-16.6359	12.5526	 
  2025	 1.6835	-1.5003	34.7203	12.2178	-15.5774	12.7614	 
  2026	 2.3184	-1.5500	-43.2824	86.1510	-14.9707	12.9122	 
  2027	 2.4114	-1.2077	34.7203	12.2178	-14.8588	12.9084	 
  2028	 2.5585	-1.2629	-1.8501	25.7217	-15.0094	12.8891	 
  2029	 2.5315	-1.0641	34.7203	12.2178	-15.1944	12.9199	 
  2030	 2.7173	-1.0961	34.7203	12.2178	-15.2632	13.0203	 
  2031	 2.5471	-0.7681	-6.7120	72.6471	-15.1256	12.8195	 
  2032	 2.6632	-0.6985	-6.7120	72.6471	-15.2719	12.8735	 
  2033	 2.7755	-0.7030	-43.2824	86.1510	-15.1643	12.7963	 
  2034	 2.8568	-0.5826	34.7203	12.2178	-15.2418	12.7500	 
  2035	 2.7523	-0.4302	-1.8501	25.7217	-15.4999	12.8078	 
  2036	 2.8956	-0.5594	34.7203	12.2178	-15.5774	12.7614	 
  2037	 2.9730	-0.5130	34.7203	12.2178	-15.7667	12.7189	 
