Oxysoft export of:	C:\Artinis Oxymon\NIRS Data\Examples\ggg
Export date:	2016/11/12 15:45:24
Start of measurement:	2016-11-12 15:22:18.541

Datafile sample rate:	25.00	Hz
Datafile duration:	227.20	s
Datafile total number of samples:	5680

Description:	

Optode-template:	3 x 1 channel (split) I
Optode distance (mm):	 10.00	10.00	10.00
Optode gradients (mm):	 -	-	-
DPF:	4.00	4.00	4.00

Device id:	10221
# Receivers:	2
# Light sources:	8
# ADC:	0

Light source wavelengths:
device	index	wavelength
1	1	847	nm
1	2	762	nm
1	3	847	nm
1	4	761	nm
1	5	847	nm
1	6	761	nm
1	7	847	nm
1	8	761	nm

Export sample rate:	25.00	Hz
No time span selected, exporting full time span



Legend:
Column	Trace (Measurement)
1	(Sample number)
2	Rx1 - Tx1 O2Hb (ggg)
3	Rx1 - Tx1 HHb (ggg)
4	Rx2a - Tx2 O2Hb (ggg)
5	Rx2a - Tx2 HHb (ggg)
6	Rx2b - Tx3 O2Hb (ggg)
7	Rx2b - Tx3 HHb (ggg)
8	(Event)


1	2	3	4	5	6	7	8
     0	 0.1045	-0.1528	-25.1740	30.0239	-0.7744	-0.4634	 
     1	 0.0348	-0.0512	13.3845	-4.9425	 0.1722	-0.2507	 
     2	 0.0348	-0.0512	 2.3502	-16.5736	 0.3142	-0.3781	 
     3	 0.0348	-0.0512	 9.9792	-14.5553	 0.0560	-0.3202	 
     4	 0.0348	-0.0512	-0.9479	-5.3102	-0.1634	-0.2392	 
     5	 0.0696	-0.1020	-2.0890	-10.0990	-0.2796	-0.3088	 
     6	 0.0696	-0.1020	23.3640	-19.4977	-0.3183	-0.3319	 
     7	 0.0696	-0.1020	-29.6758	24.0021	-0.0989	-0.4130	 
     8	 0.0696	-0.1020	18.5807	-12.5213	-0.1720	-0.3860	 
     9	 0.0696	-0.1020	 6.4797	-22.5965	-0.3527	-0.2817	 
    10	 0.0696	-0.1020	 5.1959	-7.5788	-0.4689	-0.3513	 
    11	 0.0696	-0.1020	23.3640	-19.4977	-0.5464	-0.3977	 
    12	 0.1045	-0.1528	-0.0003	-0.0001	-0.8733	-0.2394	 
    13	 0.1045	-0.1528	11.7055	-9.9825	-0.7314	-0.3668	 
    14	 0.1045	-0.1528	-7.7208	-8.0194	-0.8088	-0.4132	 
    15	 0.1045	-0.1528	16.4029	 6.9872	-0.8088	-0.4132	 
    16	 0.1045	-0.1528	30.6781	-22.1985	-0.8045	-0.3398	 
    17	 0.1045	-0.1528	 0.8312	 5.8776	-0.5076	-0.3745	 
    18	 0.0696	-0.1020	18.5807	-12.5213	-0.1333	-0.3628	 
    19	 0.0348	-0.0512	14.4184	-21.0299	 0.0560	-0.3202	 
    20	 0.0348	-0.0512	35.7868	-37.6165	 0.0560	-0.3202	 
    21	 0.0696	-0.1020	57.8351	-53.4421	-0.2021	-0.2624	 
    22	 0.0696	-0.1020	-0.0003	-0.0001	-0.3871	-0.2316	 
    23	 0.0696	-0.1020	-6.8723	-3.1226	-0.2408	-0.2856	 
    24	 0.0696	-0.1020	50.9888	-34.5338	-0.3097	-0.1852	 
    25	 0.0696	-0.1020	 0.8478	-20.5169	-0.2021	-0.2624	 
    26	 0.0696	-0.1020	 9.9792	-14.5553	-0.2365	-0.2122	 
    27	 0.0696	-0.1020	26.5475	-45.4124	-0.4215	-0.1814	 
    28	 0.0696	-0.1020	 3.8354	-12.2867	-0.4302	-0.3281	 
    29	 0.1045	-0.1528	64.7616	-34.7841	-0.5033	-0.3011	 
    30	 0.0696	-0.1020	20.6985	-7.6433	-0.5377	-0.2509	 
    31	 0.1045	-0.1528	-5.6783	 8.2813	-0.6109	-0.2239	 
    32	 0.1045	-0.1528	 3.8354	-12.2867	-0.8002	-0.2664	 
    33	 0.1045	-0.1528	-7.7208	-8.0194	-0.7270	-0.2935	 
    34	 0.0696	-0.1020	26.0153	-37.9441	-0.4215	-0.1814	 
    35	 0.0348	-0.0512	50.9888	-34.5338	-0.0816	-0.1195	 
    36	 0.0348	-0.0512	24.5946	 3.9623	 0.1034	-0.1503	 
    37	 0.0348	-0.0512	-0.0003	-0.0001	-0.0773	-0.0461	 
    38	 0.0348	-0.0512	-7.7208	-8.0194	-0.0429	-0.0963	 
    39	 0.0348	-0.0512	 9.9792	-14.5553	-0.1548	-0.0925	 
    40	 0.0348	-0.0512	13.3845	-4.9425	-0.1591	-0.1658	 
    41	 0.0348	-0.0512	16.4888	-16.9590	-0.0816	-0.1195	 
    42	 0.0348	-0.0512	 0.8312	 5.8776	-0.1504	-0.0191	 
    43	 0.0348	-0.0512	27.8032	-25.9723	-0.0128	-0.2198	 
    44	 0.0348	-0.0512	-12.0685	 4.4562	-0.4516	-0.0578	 
    45	 0.0348	-0.0512	 3.8354	-12.2867	-0.4172	-0.1080	 
    46	 0.0696	-0.1020	 6.5092	-2.4038	-0.4559	-0.1312	 
    47	 0.0696	-0.1020	41.7663	-21.0827	-0.5678	-0.1273	 
    48	 0.0696	-0.1020	25.0574	-29.4564	-0.5334	-0.1775	 
    49	 0.0696	-0.1020	-11.8221	10.5500	-0.7571	-0.1699	 
    50	 0.0696	-0.1020	 6.4797	-22.5965	-0.6410	-0.1003	 
    51	 0.0348	-0.0512	-5.6783	 8.2813	-0.1203	-0.1426	 
    52	-0.0000	-0.0004	 5.1959	-7.5788	 0.1809	-0.1039	 
    53	-0.0000	-0.0004	-17.7465	12.7376	 0.2196	-0.0808	 
    54	-0.0000	-0.0004	-0.0003	-0.0001	 0.0002	 0.0003	 
    55	 0.0348	-0.0512	26.0153	-37.9441	-0.1504	-0.0191	 
    56	 0.0348	-0.0512	25.8948	-15.2220	-0.0773	-0.0461	 
    57	 0.0348	-0.0512	-17.7465	12.7376	 0.0002	 0.0003	 
    58	 0.0348	-0.0512	-6.1441	 2.2686	 0.0389	 0.0235	 
    59	 0.0348	-0.0512	-31.0984	32.2115	-0.1461	 0.0543	 
    60	 0.0348	-0.0512	-32.9104	 6.4922	-0.1117	 0.0041	 
    61	 0.0348	-0.0512	 3.8354	-12.2867	-0.2580	 0.0581	 
    62	 0.0348	-0.0512	 3.8354	-12.2867	-0.3742	-0.0114	 
    63	 0.0348	-0.0512	-29.6758	24.0021	-0.3354	 0.0117	 
    64	 0.0348	-0.0512	-12.0685	 4.4562	-0.5161	 0.1160	 
    65	 0.0696	-0.1020	33.5745	-18.0579	-0.5549	 0.0928	 
    66	 0.0696	-0.1020	 6.5092	-2.4038	-0.3742	-0.0114	 
    67	 0.0348	-0.0512	11.7055	-9.9825	 0.0432	 0.0968	 
    68	-0.0000	-0.0004	23.3640	-19.4977	 0.2713	 0.1626	 
    69	-0.0000	-0.0004	 2.3502	-16.5736	 0.5251	 0.0313	 
    70	-0.0000	-0.0004	-5.4662	15.0625	 0.1981	 0.1896	 
    71	-0.0000	-0.0004	55.3265	-31.3001	 0.1207	 0.1432	 
    72	 0.0348	-0.0512	-6.1441	 2.2686	 0.1551	 0.0930	 
    73	 0.0348	-0.0512	 9.9792	-14.5553	 0.1163	 0.0698	 
    74	 0.0348	-0.0512	 1.6686	20.1120	 0.1250	 0.2166	 
    75	 0.0348	-0.0512	22.7003	-2.1977	 0.1207	 0.1432	 
    76	 0.0348	-0.0512	62.5857	-51.4480	-0.0643	 0.1740	 
    77	 0.0348	-0.0512	 3.8354	-12.2867	-0.1762	 0.1779	 
    78	 0.0348	-0.0512	 5.1959	-7.5788	-0.2881	 0.1817	 
    79	 0.0348	-0.0512	 0.8478	-20.5169	-0.4344	 0.2357	 
    80	 0.0696	-0.1020	20.9279	-23.4336	-0.3655	 0.1353	 
    81	 0.0696	-0.1020	25.0574	-29.4564	-0.5205	 0.0426	 
    82	 0.0696	-0.1020	 5.1959	-7.5788	-0.4817	 0.0658	 
    83	 0.0696	-0.1020	 5.1959	-7.5788	-0.4817	 0.0658	 
    84	 0.0348	-0.0512	18.5807	-12.5213	-0.1375	 0.2010	 
    85	-0.0000	-0.0004	 1.4090	12.5238	 0.1637	 0.2398	 
    86	-0.0000	-0.0004	20.9279	-23.4336	 0.0949	 0.3401	 
    87	-0.0000	-0.0004	14.4184	-21.0299	 0.1680	 0.3131	 
    88	-0.0000	-0.0004	-23.3784	14.8172	 0.0174	 0.2938	 
    89	 0.0348	-0.0512	35.1172	-28.6731	 0.1637	 0.2398	 
    90	-0.0000	-0.0004	-5.6783	 8.2813	 0.1250	 0.2166	 
    91	 0.0348	-0.0512	28.9116	-35.0778	 0.0949	 0.3401	 
    92	 0.0348	-0.0512	-0.9479	-5.3102	 0.0949	 0.3401	 
    93	 0.0348	-0.0512	27.8032	-25.9723	 0.0131	 0.2204	 
    94	 0.0348	-0.0512	-0.9479	-5.3102	-0.0256	 0.1972	 
    95	 0.0348	-0.0512	-18.3262	-4.1033	-0.2838	 0.2551	 
    96	 0.0348	-0.0512	13.3845	-4.9425	-0.2881	 0.1817	 
    97	 0.0348	-0.0512	 3.8354	-12.2867	-0.4731	 0.2125	 
    98	 0.0348	-0.0512	 3.8354	-12.2867	-0.4731	 0.2125	 
    99	 0.0696	-0.1020	14.9912	-41.1452	-0.4344	 0.2357	 
   100	 0.0696	-0.1020	18.5807	-12.5213	-0.5462	 0.2395	 
   101	 0.0696	-0.1020	30.6781	-22.1985	-0.4774	 0.1391	 
   102	 0.0348	-0.0512	16.4888	-16.9590	-0.1676	 0.3246	 
   103	-0.0000	-0.0004	-36.7303	34.2911	 0.2068	 0.3363	 
   104	-0.0000	-0.0004	15.0205	 0.6381	 0.2068	 0.3363	 
   105	 0.0348	-0.0512	13.3845	-4.9425	 0.1637	 0.2398	 
   106	 0.0348	-0.0512	 0.8312	 5.8776	 0.0174	 0.2938	 
   107	 0.0348	-0.0512	15.0205	 0.6381	-0.0213	 0.2706	 
   108	 0.0348	-0.0512	 1.4090	12.5238	-0.0944	 0.2976	 
   109	 0.0348	-0.0512	-13.8870	-10.5779	-0.0170	 0.3440	 
   110	 0.0348	-0.0512	-12.5041	-1.0430	-0.0557	 0.3208	 
   111	 0.0348	-0.0512	 8.7231	 9.8230	-0.2063	 0.3014	 
   112	 0.0348	-0.0512	-19.0302	27.7552	-0.2106	 0.2280	 
   113	 0.0696	-0.1020	14.4184	-21.0299	-0.3913	 0.3322	 
   114	 0.0696	-0.1020	-18.1196	19.7348	-0.4301	 0.3091	 
   115	 0.0696	-0.1020	16.4029	 6.9872	-0.5032	 0.3361	 
   116	 0.0696	-0.1020	 9.9792	-14.5553	-0.4344	 0.2357	 
   117	 0.0696	-0.1020	-0.9479	-5.3102	-0.5462	 0.2395	 
   118	 0.0696	-0.1020	 3.8354	-12.2867	-0.5806	 0.2897	 
   119	 0.0696	-0.1020	-5.4662	15.0625	-0.3225	 0.2319	 
   120	 0.0348	-0.0512	-0.9479	-5.3102	 0.0174	 0.2938	 
   121	 0.0348	-0.0512	 9.3484	17.2762	 0.1035	 0.4869	 
   122	 0.0348	-0.0512	45.3469	-16.7449	 0.2154	 0.4831	 
   123	 0.0348	-0.0512	16.2582	-30.4054	-0.0127	 0.4173	 
   124	 0.0696	-0.1020	 3.8354	-12.2867	-0.1245	 0.4212	 
   125	 0.0696	-0.1020	31.9326	-31.9952	-0.0557	 0.3208	 
   126	 0.0696	-0.1020	27.8032	-25.9723	-0.1289	 0.3478	 
   127	 0.0696	-0.1020	-17.7465	12.7376	-0.3052	 0.5254	 
   128	 0.0696	-0.1020	11.7055	-9.9825	-0.2751	 0.4018	 
   129	 0.0696	-0.1020	-8.6940	-12.4954	-0.4214	 0.4558	 
   130	 0.0696	-0.1020	-12.5207	25.3516	-0.4989	 0.4094	 
   131	 0.1045	-0.1528	-11.8221	10.5500	-0.5763	 0.3631	 
   132	 0.1045	-0.1528	29.4565	-42.9631	-0.5806	 0.2897	 
   133	 0.1045	-0.1528	20.9279	-23.4336	-0.7226	 0.4171	 
   134	 0.1045	-0.1528	-0.0003	-0.0001	-0.6925	 0.2935	 
   135	 0.1045	-0.1528	13.9471	-33.4878	-0.9464	 0.4247	 
   136	 0.1045	-0.1528	 6.5092	-2.4038	-0.9119	 0.3746	 
   137	 0.1045	-0.1528	46.5496	-28.0592	-0.6151	 0.3399	 
   138	 0.0696	-0.1020	-6.8723	-3.1226	-0.3870	 0.4056	 
   139	 0.0696	-0.1020	-24.0439	21.9225	-0.3095	 0.4520	 
   140	 0.0696	-0.1020	22.7003	-2.1977	-0.0514	 0.3941	 
   141	 0.0696	-0.1020	 0.8312	 5.8776	-0.4902	 0.5562	 
   142	 0.1045	-0.1528	32.5248	-40.3478	-0.4989	 0.4094	 
   143	 0.1045	-0.1528	18.5807	-12.5213	-0.5376	 0.3863	 
   144	 0.1045	-0.1528	-25.1740	30.0239	-0.6064	 0.4866	 
   145	 0.1045	-0.1528	18.5807	-12.5213	-0.4257	 0.3824	 
   146	 0.1045	-0.1528	23.3640	-19.4977	-0.6107	 0.4133	 
   147	 0.1045	-0.1528	-6.1441	 2.2686	-0.8302	 0.4943	 
   148	 0.1045	-0.1528	 9.9792	-14.5553	-0.8001	 0.3707	 
   149	 0.1393	-0.2036	25.0574	-29.4564	-1.1658	 0.5058	 
   150	 0.1393	-0.2036	 5.1959	-7.5788	-1.1357	 0.3822	 
   151	 0.1393	-0.2036	16.4888	-16.9590	-1.1013	 0.3320	 
   152	 0.1393	-0.2036	-12.0685	 4.4562	-1.1013	 0.3320	 
   153	 0.1741	-0.2545	-5.6783	 8.2813	-1.2519	 0.3127	 
   154	 0.1741	-0.2545	 9.9792	-14.5553	-1.3637	 0.3165	 
   155	 0.1741	-0.2545	 3.8354	-12.2867	-1.2131	 0.3358	 
   156	 0.1393	-0.2036	42.7970	-31.5089	-0.8732	 0.3977	 
   157	 0.1045	-0.1528	38.3578	-25.0343	-0.5376	 0.3863	 
   158	 0.1045	-0.1528	14.4184	-21.0299	-0.6796	 0.5137	 
   159	 0.1045	-0.1528	-36.7303	34.2911	-0.6839	 0.4403	 
   160	 0.1393	-0.2036	 5.1959	-7.5788	-0.9033	 0.5213	 
   161	 0.1393	-0.2036	23.3640	-19.4977	-1.0238	 0.3784	 
   162	 0.1393	-0.2036	-2.2901	-27.4921	-0.9851	 0.4016	 
   163	 0.1393	-0.2036	23.3640	-19.4977	-0.9076	 0.4479	 
   164	 0.1393	-0.2036	 8.2746	-18.7612	-0.9464	 0.4247	 
   165	 0.1741	-0.2545	 1.4090	12.5238	-1.0970	 0.4054	 
   166	 0.1741	-0.2545	16.4029	 6.9872	-1.1357	 0.3822	 
   167	 0.1741	-0.2545	 3.8354	-12.2867	-1.3594	 0.3899	 
   168	 0.1741	-0.2545	15.0205	 0.6381	-1.4369	 0.3435	 
   169	 0.1741	-0.2545	-44.7139	45.9353	-1.5100	 0.3705	 
   170	 0.1741	-0.2545	-0.9479	-5.3102	-1.4756	 0.3203	 
   171	 0.2090	-0.3053	 5.1959	-7.5788	-1.7682	 0.4283	 
   172	 0.2090	-0.3053	25.0574	-29.4564	-1.6305	 0.2276	 
   173	 0.2090	-0.3053	20.6985	-7.6433	-1.6606	 0.3511	 
   174	 0.1741	-0.2545	-3.2816	-14.4940	-1.1357	 0.3822	 
   175	 0.1393	-0.2036	-5.6783	 8.2813	-0.8001	 0.3707	 
   176	 0.1393	-0.2036	20.9279	-23.4336	-0.9119	 0.3746	 
   177	 0.1393	-0.2036	20.9279	-23.4336	-1.1314	 0.4556	 
   178	 0.1741	-0.2545	-6.1441	 2.2686	-1.2432	 0.4594	 
   179	-153.3372	57.3749	16.4888	-16.9590	-1.5057	 0.4439	 
   180	-153.3372	57.3749	 8.2746	-18.7612	-1.4670	 0.4671	 
   181	-153.3372	57.3749	22.4020	-32.6741	-1.2820	 0.4362	 
   182	-153.3372	57.3749	 7.7064	 3.3389	-1.3938	 0.4400	 
   183	-153.3372	57.3749	-5.6783	 8.2813	-1.5832	 0.3975	 
   184	-153.3372	57.3749	17.5401	14.2514	-1.6262	 0.3010	 
   185	-153.8521	57.5681	30.8920	-5.2225	-1.9188	 0.4090	 
   186	-153.8173	57.5173	27.8032	-25.9723	-1.8112	 0.3318	 
   187	-153.8173	57.5173	 7.7064	 3.3389	-1.9231	 0.3356	 
   188	-154.2586	57.6830	-0.0003	-0.0001	-2.0349	 0.3394	 
   189	-154.3322	57.7106	-0.0003	-0.0001	-1.9575	 0.3858	 
   190	-154.1115	57.6278	-13.1332	-6.0209	-1.8456	 0.3820	 
   191	-153.5579	57.4577	16.4888	-16.9590	-1.4670	 0.4671	 
   192	-153.1514	57.3428	38.3578	-25.0343	-1.1357	 0.3822	 
   193	-153.1514	57.3428	20.9279	-23.4336	-1.2776	 0.5096	 
   194	-153.4108	57.4025	-6.1441	 2.2686	-1.5014	 0.5172	 
   195	-153.7050	57.5129	 3.8354	-12.2867	-1.5487	 0.3473	 
   196	-153.7785	57.5405	13.3845	-4.9425	-1.7294	 0.4515	 
   197	-153.6314	57.4853	-0.9479	-5.3102	-1.5788	 0.4709	 
   198	-153.7050	57.5129	25.8948	-15.2220	-1.6176	 0.4477	 
   199	-153.7050	57.5129	12.4041	-24.7841	-1.6520	 0.4979	 
   200	-153.7785	57.5405	14.4184	-21.0299	-1.7682	 0.4283	 
   201	-153.8908	57.5450	-0.9479	-5.3102	-1.8112	 0.3318	 
   202	-154.0379	57.6002	 6.4797	-22.5965	-1.9618	 0.3124	 
   203	-154.1850	57.6554	13.3845	-4.9425	-2.0349	 0.3394	 
   204	-154.1850	57.6554	-11.9757	17.4662	-2.1081	 0.3664	 
   205	-154.3322	57.7106	-5.4662	15.0625	-2.1124	 0.2931	 
   206	-154.4057	57.7383	38.3578	-25.0343	-2.1899	 0.2467	 
   207	-153.8908	57.5450	30.8920	-5.2225	-1.9188	 0.4090	 
   208	-153.2249	57.3704	 8.7231	 9.8230	-1.5788	 0.4709	 
   209	-153.0778	57.3152	-28.7908	16.8158	-1.3594	 0.3899	 
   210	-153.2249	57.3704	 6.5092	-2.4038	-1.4670	 0.4671	 
   211	-153.1901	57.3196	-11.8221	10.5500	-1.4713	 0.3937	 
   212	-153.3372	57.3749	35.1172	-28.6731	-1.6950	 0.4013	 
   213	-153.4843	57.4301	15.0205	 0.6381	-1.7294	 0.4515	 
   214	-153.4843	57.4301	-53.9364	59.3863	-1.6176	 0.4477	 
   215	-153.3372	57.3749	18.5807	-12.5213	-1.4713	 0.3937	 
   216	-153.3372	57.3749	-0.0003	-0.0001	-1.6477	 0.5713	 
   217	-153.6314	57.4853	23.3640	-19.4977	-1.8026	 0.4785	 
   218	-153.7785	57.5405	-5.6455	22.8128	-1.8069	 0.4052	 
   219	-153.7785	57.5405	14.4184	-21.0299	-1.9532	 0.4592	 
   220	-153.9257	57.5958	30.8920	-5.2225	-1.9919	 0.4360	 
   221	-154.0379	57.6002	 7.7064	 3.3389	-2.0650	 0.4630	 
   222	-154.1115	57.6278	27.8032	-25.9723	-2.1038	 0.4398	 
   223	-154.0379	57.6002	 5.1959	-7.5788	-2.1726	 0.5402	 
   224	-153.6314	57.4853	15.0205	 0.6381	-1.8714	 0.5789	 
   225	-153.0778	57.3152	16.4029	 6.9872	-1.4583	 0.6138	 
   226	-152.7449	57.2279	-25.1740	30.0239	-1.3077	 0.6332	 
   227	-152.8571	57.2324	 5.1959	-7.5788	-1.2346	 0.6062	 
   228	-153.0043	57.2876	36.5701	-13.5040	-1.4971	 0.5906	 
   229	-153.2249	57.3704	 9.9792	-14.5553	-1.5401	 0.4941	 
   230	-153.1514	57.3428	12.4041	-24.7841	-1.7509	 0.7218	 
   231	-153.0778	57.3152	-2.0890	-10.0990	-1.4971	 0.5906	 
   232	-153.0778	57.3152	 9.9792	-14.5553	-1.4583	 0.6138	 
   233	-153.2985	57.3980	20.9279	-23.4336	-1.6778	 0.6948	 
   234	-153.2249	57.3704	-6.8723	-3.1226	-1.7208	 0.5983	 
   235	-153.4456	57.4533	11.7055	-9.9825	-1.9445	 0.6059	 
   236	-153.5927	57.5085	-40.2812	27.9182	-1.9144	 0.4824	 
   237	-153.6663	57.5361	-50.1263	47.9339	-2.0564	 0.6097	 
   238	-153.6663	57.5361	10.3338	-28.2178	-2.0521	 0.6831	 
   239	-153.8134	57.5913	-6.1441	 2.2686	-1.9876	 0.5094	 
   240	-98.1886	-23.6175	-6.1441	 2.2686	-2.2457	 0.5672	 
   241	-97.7473	-23.7831	-29.6758	24.0021	-1.8370	 0.5287	 
   242	-97.0853	-24.0317	 6.5092	-2.4038	-1.6433	 0.6446	 
   243	-96.9382	-24.0869	-12.5041	-1.0430	-1.4196	 0.6370	 
   244	-97.4297	-23.4496	59.7656	-37.7747	-1.3852	 0.5868	 
   245	-97.5033	-23.4220	-19.0302	27.7552	-1.5315	 0.6408	 
   246	-97.7240	-23.3392	-5.6783	 8.2813	-1.7896	 0.6986	 
   247	-97.7975	-23.3116	-13.1332	-6.0209	-1.9402	 0.6793	 
   248	-97.6156	-23.4176	 6.5092	-2.4038	-1.7552	 0.6485	 
   249	-97.4646	-23.3988	 9.9792	-14.5553	-1.4971	 0.5906	 
   250	-97.5033	-23.4220	16.4888	-16.9590	-1.8240	 0.7488	 
   251	-97.5420	-23.4452	 8.2746	-18.7612	-1.6821	 0.6215	 
   252	-97.6852	-23.3160	18.5807	-12.5213	-1.7896	 0.6986	 
   253	-97.6117	-23.3436	31.9326	-31.9952	-1.8284	 0.6755	 
   254	-97.6504	-23.3668	 0.3340	39.3466	-1.8628	 0.7257	 
   255	-97.7627	-23.3624	35.9661	-45.3668	-1.8671	 0.6523	 
   256	-97.6891	-23.3900	 2.3502	-16.5736	-1.9402	 0.6793	 
   257	-97.7588	-23.2884	16.2582	-30.4054	-1.8327	 0.6021	 
   258	-97.3832	-23.2784	13.3845	-4.9425	-1.4927	 0.6640	 
   259	-97.0425	-23.2177	-12.0685	 4.4562	-1.2260	 0.7529	 
   260	-97.0038	-23.1945	-6.8723	-3.1226	-1.2561	 0.8765	 
   261	-97.1548	-23.2133	-36.2363	52.8505	-1.3722	 0.8069	 
   262	-97.2710	-23.2829	35.1172	-28.6731	-1.5960	 0.8146	 
   263	-97.3832	-23.2784	-6.8723	-3.1226	-1.8585	 0.7990	 
   264	-97.3097	-23.3061	23.3640	-19.4977	-1.7853	 0.7720	 
   265	-97.2710	-23.2829	-3.2816	-14.4940	-1.7122	 0.7450	 
   266	-97.3445	-23.2553	-0.0003	-0.0001	-1.7509	 0.7218	 
   267	-97.4181	-23.2276	39.2467	-34.6959	-1.8240	 0.7488	 
   268	-97.4955	-23.2740	13.3845	-4.9425	-1.9746	 0.7295	 
   269	-97.6078	-23.2696	-17.9165	 0.9556	-1.9445	 0.6059	 
   270	-97.6852	-23.3160	27.8032	-25.9723	-2.3102	 0.7410	 
   271	-97.6852	-23.3160	-5.4662	15.0625	-2.0908	 0.6599	 
   272	-97.7240	-23.3392	-64.5418	63.3025	-2.0951	 0.5866	 
   273	-97.7279	-23.4132	11.7055	-9.9825	-2.2070	 0.5904	 
   274	-97.5769	-23.3944	 0.8312	 5.8776	-2.3102	 0.7410	 
   275	-97.1548	-23.2133	13.3845	-4.9425	-1.6347	 0.7914	 
   276	-96.8876	-23.1250	 2.3502	-16.5736	-1.4454	 0.8339	 
   277	-96.9264	-23.1481	16.4029	 6.9872	-1.5573	 0.8377	 
   278	-96.9999	-23.1205	33.5745	-18.0579	-1.4540	 0.6872	 
   279	-96.9651	-23.1713	-17.9165	 0.9556	-1.5960	 0.8146	 
   280	-97.1161	-23.1901	-6.1441	 2.2686	-1.6003	 0.7412	 
   281	-97.1896	-23.1625	30.6781	-22.1985	-1.7466	 0.7952	 
   282	-97.0038	-23.1945	13.3845	-4.9425	-1.7035	 0.8918	 
   283	-97.1122	-23.1161	-23.3784	14.8172	-1.5960	 0.8146	 
   284	-97.1200	-23.2641	20.9279	-23.4336	-1.7122	 0.7450	 
   285	-97.2671	-23.2089	 9.9792	-14.5553	-1.9703	 0.8029	 
   286	-97.3058	-23.2321	-12.0685	 4.4562	-2.0435	 0.8299	 
   287	-97.3445	-23.2553	25.8948	-15.2220	-1.9359	 0.7527	 
   288	-97.4916	-23.2000	14.4184	-21.0299	-2.0521	 0.6831	 
   289	-97.5691	-23.2464	28.3783	-10.4791	-2.3447	 0.7911	 
   290	-97.4607	-23.3248	 0.8312	 5.8776	-2.1984	 0.7371	 
   291	-97.4181	-23.2276	16.4888	-16.9590	-2.0865	 0.7333	 
   292	-97.0038	-23.1945	-5.4662	15.0625	-1.7466	 0.7952	 
   293	-96.7754	-23.1294	31.9326	-31.9952	-1.5228	 0.7876	 
   294	-96.7715	-23.0554	-6.1441	 2.2686	-1.4067	 0.8571	 
   295	-96.8489	-23.1018	23.3640	-19.4977	-1.5573	 0.8377	 
   296	-97.0347	-23.0697	13.3845	-4.9425	-1.6691	 0.8416	 
   297	-97.0386	-23.1437	 0.8312	 5.8776	-1.6734	 0.7682	 
   298	-97.0735	-23.0929	20.9279	-23.4336	-1.7079	 0.8184	 
   299	-97.0077	-23.2685	83.4968	-51.0356	-1.8541	 0.8724	 
   300	-97.0464	-23.2917	-2.0890	-10.0990	-2.0134	 0.7063	 
   301	-97.1509	-23.1393	 9.9792	-14.5553	-2.0564	 0.6097	 
   302	-97.2284	-23.1857	-11.8221	10.5500	-2.3533	 0.6444	 
   303	-97.3058	-23.2321	 8.7231	 9.8230	-2.3189	 0.5942	 
   304	-97.3445	-23.2553	11.7055	-9.9825	-2.2845	 0.5440	 
   305	-97.3019	-23.1581	-28.7908	16.8158	-2.1683	 0.6136	 
   306	-97.4490	-23.1028	23.3640	-19.4977	-2.1984	 0.7371	 
   307	-97.5265	-23.1492	-5.4662	15.0625	-2.1640	 0.6869	 
   308	-97.5652	-23.1724	-28.7908	16.8158	-2.2715	 0.7641	 
   309	-97.3406	-23.1813	-13.1332	-6.0209	-2.0435	 0.8299	 
   310	-97.0347	-23.0697	 8.2746	-18.7612	-1.7035	 0.8918	 
   311	-96.8102	-23.0786	27.8032	-25.9723	-1.5529	 0.9111	 
   312	-96.7754	-23.1294	-24.0439	21.9225	-1.5529	 0.9111	 
   313	-96.9612	-23.0973	 5.1959	-7.5788	-1.7380	 0.9420	 
   314	-97.0038	-23.1945	-28.3057	10.4519	-1.6304	 0.8648	 
   315	-97.0038	-23.1945	38.3578	-25.0343	-1.6261	 0.9381	 
   316	-96.9225	-23.0742	-12.5041	-1.0430	-1.2474	 1.0232	 
   317	-96.9186	-23.0002	-5.4662	15.0625	-1.1269	 1.1661	 
   318	-97.0347	-23.0697	-12.0685	 4.4562	-1.1613	 1.2163	 
   319	-97.1161	-23.1901	-36.7303	34.2911	-1.5658	 1.3282	 
   320	-97.2671	-23.2089	-42.3801	55.1191	-1.3894	 1.1506	 
   321	-97.3794	-23.2045	16.4888	-16.9590	-1.4281	 1.1274	 
   322	-97.4607	-23.3248	-12.0685	 4.4562	-1.4324	 1.0540	 
   323	-97.6078	-23.2696	11.7055	-9.9825	-1.6863	 1.1853	 
   324	-97.6852	-23.3160	-0.9479	-5.3102	-1.8326	 1.2393	 
   325	-97.7705	-23.5104	-5.6783	 8.2813	-1.9100	 1.1929	 
   326	-97.8866	-23.5799	-33.1577	41.6681	-2.0993	 1.1504	 
   327	-97.5885	-23.6164	-31.0984	32.2115	-1.7637	 1.1389	 
   328	-97.3175	-23.4541	-25.1740	30.0239	-1.5787	 1.1081	 
   329	-97.2478	-23.5557	-13.1332	-6.0209	-1.8068	 1.0423	 
   330	-97.3988	-23.5744	-0.0003	-0.0001	-2.0348	 0.9766	 
   331	-97.5111	-23.5700	-35.0882	26.0006	-2.1467	 0.9804	 
   332	-97.5576	-23.7412	-13.1332	-6.0209	-2.3748	 0.9147	 
   333	-97.5924	-23.6904	-28.7908	16.8158	-2.7104	 0.9262	 
   334	-97.5576	-23.7412	-0.9479	-5.3102	-2.5641	 0.8722	 
   335	-97.4066	-23.7224	 4.7020	-26.1382	-2.4953	 0.7718	 
   336	-97.4453	-23.7456	16.2582	-30.4054	-2.8653	 0.8335	 
   337	-97.4492	-23.8196	 6.5092	-2.4038	-3.0589	 0.7175	 
   338	-97.4105	-23.7964	-5.9034	-22.2221	-3.1020	 0.6210	 
   339	-97.4066	-23.7224	11.7055	-9.9825	-3.2956	 0.5051	 
   340	-97.3717	-23.7732	-12.5041	-1.0430	-3.6269	 0.5899	 
   341	-97.4801	-23.6948	17.5401	14.2514	-3.5968	 0.4664	 
   342	-97.4801	-23.6948	 3.8354	-12.2867	-3.7431	 0.5204	 
   343	-97.3717	-23.7732	-28.3057	10.4519	-3.6786	 0.3466	 
   344	-97.1820	-23.7313	20.6985	-7.6433	-3.8162	 0.5474	 
   345	-96.8761	-23.6197	-24.0439	21.9225	-3.0762	 0.4240	 
   346	-96.6129	-23.6054	-12.0685	 4.4562	-2.8094	 0.5130	 
   347	-96.7174	-23.4530	12.4041	-24.7841	-2.9213	 0.5168	 
   348	-96.7251	-23.6010	-17.7465	12.7376	-2.9213	 0.5168	 
   349	-96.7987	-23.5734	-6.8723	-3.1226	-3.0375	 0.4472	 
   350	-96.8374	-23.5965	-23.3784	14.8172	-3.1063	 0.5476	 
   351	-96.8722	-23.5457	-2.0890	-10.0990	-3.1063	 0.5476	 
   352	-96.8374	-23.5965	 3.8354	-12.2867	-3.1794	 0.5746	 
   353	-96.9458	-23.5181	-0.0003	-0.0001	-3.2482	 0.6750	 
   354	-96.9845	-23.5413	-0.0003	-0.0001	-3.2138	 0.6248	 
   355	-97.0968	-23.5369	13.3845	-4.9425	-3.2956	 0.5051	 
   356	-97.1781	-23.6573	-3.2816	-14.4940	-3.5538	 0.5629	 
   357	-97.2169	-23.6805	-23.1095	 2.8732	-3.7775	 0.5706	 
   358	-97.2169	-23.6805	-6.8723	-3.1226	-3.5581	 0.4895	 
   359	-97.2943	-23.7268	-42.1427	36.2897	-3.7087	 0.4702	 
   360	-97.5537	-23.6672	-6.8723	-3.1226	-3.6699	 0.4934	 
   361	-97.4762	-23.6208	-13.1332	-6.0209	-3.4763	 0.6093	 
   362	-97.0620	-23.5877	16.2582	-30.4054	-2.9470	 0.7137	 
   363	-96.8684	-23.4717	-28.3057	10.4519	-2.5641	 0.8722	 
   364	-96.7948	-23.4994	-0.7104	-24.1396	-2.4393	 1.0885	 
   365	-96.7948	-23.4994	-23.1128	 8.5344	-2.3575	 1.2082	 
   366	-97.0155	-23.4165	 2.3502	-16.5736	-2.3532	 1.2816	 
   367	-97.0194	-23.4905	-6.8723	-3.1226	-2.2800	 1.2546	 
   368	-97.0890	-23.3889	 3.8354	-12.2867	-2.2413	 1.2778	 
   369	-96.9806	-23.4673	-7.7208	-8.0194	-2.0907	 1.2971	 
   370	-97.1626	-23.3613	-5.6783	 8.2813	-2.1208	 1.4207	 
   371	-97.1704	-23.5093	 3.8354	-12.2867	-2.1638	 1.3241	 
   372	-97.2826	-23.5049	-12.5041	-1.0430	-2.3489	 1.3550	 
   373	-97.4685	-23.4728	14.4184	-21.0299	-2.3101	 1.3781	 
   374	-97.5072	-23.4960	 6.5092	-2.4038	-2.6027	 1.4862	 
   375	-97.6582	-23.5148	-3.2816	-14.4940	-2.5295	 1.4592	 
   376	-97.6195	-23.4916	18.5807	-12.5213	-2.4607	 1.3588	 
   377	-97.5885	-23.6164	22.4020	-32.6741	-2.5295	 1.4592	 
   378	-97.7356	-23.5612	-44.7139	45.9353	-2.3833	 1.4051	 
   379	-97.8828	-23.5059	-5.6455	22.8128	-2.2671	 1.4747	 
   380	-97.6234	-23.5656	16.4888	-16.9590	-2.0347	 1.6138	 
   381	-97.3136	-23.3801	-36.2363	52.8505	-1.6905	 1.7491	 
   382	-97.1626	-23.3613	-12.5041	-1.0430	-1.5399	 1.7684	 
   383	-97.0542	-23.4397	26.0153	-37.9441	-1.6130	 1.7954	 
   384	-97.1277	-23.4121	-12.0685	 4.4562	-1.5786	 1.7452	 
   385	-97.2091	-23.5325	 3.8354	-12.2867	-2.0218	 1.8339	 
   386	-97.5033	-23.4220	16.4888	-16.9590	-2.1079	 1.6408	 
   387	-97.4685	-23.4728	-6.8723	-3.1226	-2.2197	 1.6446	 
   388	-97.2826	-23.5049	11.7055	-9.9825	-2.1035	 1.7142	 
   389	-97.4297	-23.4496	-5.6455	22.8128	-2.0648	 1.7373	 
   390	-97.4724	-23.5468	-33.1577	41.6681	-1.9529	 1.7335	 
   391	-97.5807	-23.4684	13.3845	-4.9425	-2.0218	 1.8339	 
   392	-97.6621	-23.5888	23.3127	-40.6945	-2.2111	 1.7914	 
   393	-97.8479	-23.5567	-3.2816	-14.4940	-2.4004	 1.7488	 
   394	-97.9254	-23.6031	-9.7576	-16.6007	-2.4090	 1.6021	 
   395	-98.0028	-23.6495	-19.0302	27.7552	-2.7059	 1.6367	 
   396	-98.0803	-23.6959	16.4888	-16.9590	-2.6715	 1.5865	 
   397	-98.1577	-23.7423	 9.9792	-14.5553	-2.8953	 1.5942	 
   398	-98.2700	-23.7378	 0.8312	 5.8776	-2.9684	 1.6212	 
   399	-98.3784	-23.6594	-38.9573	20.5699	-3.0372	 1.7216	 
   400	-98.0028	-23.6495	-13.8870	-10.5779	-2.5941	 1.6329	 
   401	-97.5150	-23.6440	 9.9792	-14.5553	-2.4305	 1.8724	 
   402	-97.3252	-23.6020	-23.3784	14.8172	-2.0304	 1.6872	 
   403	-97.4724	-23.5468	27.8032	-25.9723	-2.2885	 1.7450	 
   404	-97.5924	-23.6904	12.4041	-24.7841	-2.4391	 1.7256	 
   405	-97.7434	-23.7092	 8.3153	-31.4082	-2.7704	 1.8105	 
   406	-97.7047	-23.6860	-17.7003	 6.5358	-2.7704	 1.8105	 
   407	-97.7395	-23.6352	-12.0685	 4.4562	-2.5941	 1.6329	 
   408	-97.7434	-23.7092	-24.0439	21.9225	-2.5941	 1.6329	 
   409	-97.8557	-23.7047	-6.1441	 2.2686	-2.9598	 1.7679	 
   410	-97.8557	-23.7047	11.7055	-9.9825	-2.9684	 1.6212	 
   411	-98.0067	-23.7235	-24.0439	21.9225	-3.1233	 1.5285	 
   412	-98.0454	-23.7467	-18.8606	-8.7414	-3.2008	 1.4821	 
   413	-98.0454	-23.7467	-17.7003	 6.5358	-3.2395	 1.4589	 
   414	-98.0454	-23.7467	-12.0685	 4.4562	-3.3815	 1.5863	 
   415	-98.1964	-23.7655	-0.9479	-5.3102	-3.3514	 1.4627	 
   416	-98.2390	-23.8626	-23.1095	 2.8732	-3.6138	 1.4472	 
   417	-98.2313	-23.7147	-33.9838	18.7333	-3.6783	 1.6210	 
   418	-97.7047	-23.6860	39.2467	-34.6959	-3.1577	 1.5787	 
   419	-97.5111	-23.5700	-5.6783	 8.2813	-3.0071	 1.5980	 
   420	-97.5498	-23.5932	-6.8723	-3.1226	-2.9340	 1.5710	 
   421	-97.5537	-23.6672	23.3640	-19.4977	-3.0846	 1.5517	 
   422	-97.7047	-23.6860	-0.9479	-5.3102	-3.0932	 1.4049	 
   423	-97.8557	-23.7047	39.2467	-34.6959	-3.3858	 1.5129	 
   424	-97.7473	-23.7831	18.5807	-12.5213	-3.2438	 1.3856	 
   425	-97.7047	-23.6860	-0.9479	-5.3102	-3.2352	 1.5323	 
   426	-97.7783	-23.6583	-12.5041	-1.0430	-3.1964	 1.5555	 
   427	-97.9293	-23.6771	39.4001	-42.8865	-3.3126	 1.4859	 
   428	-97.9719	-23.7743	 2.3502	-16.5736	-3.3557	 1.3894	 
   429	-98.1229	-23.7931	-5.4662	15.0625	-3.6439	 1.5708	 
   430	-98.3087	-23.7610	 1.4090	12.5238	-3.6095	 1.5206	 
   431	-98.3552	-23.9322	-11.8221	10.5500	-3.6870	 1.4742	 
   432	-98.3900	-23.8814	-23.1128	 8.5344	-3.6526	 1.4240	 
   433	-98.5333	-23.7522	-2.0890	-10.0990	-3.6569	 1.3507	 
   434	-98.5410	-23.9002	27.8032	-25.9723	-3.9494	 1.4587	 
   435	-98.4288	-23.9046	 5.1959	-7.5788	-3.7988	 1.4780	 
   436	-97.8596	-23.7787	-27.0139	39.3994	-3.2352	 1.5323	 
   437	-97.4840	-23.7688	-5.6783	 8.2813	-2.9727	 1.5478	 
   438	-97.5576	-23.7412	20.6985	-7.6433	-3.1147	 1.6752	 
   439	-97.6699	-23.7368	20.9279	-23.4336	-3.1921	 1.6289	 
   440	-97.7434	-23.7092	-0.0003	-0.0001	-3.1190	 1.6018	 
   441	-97.7860	-23.8063	-12.5041	-1.0430	-3.1620	 1.5053	 
   442	-97.8635	-23.8527	-6.8723	-3.1226	-3.3470	 1.5361	 
   443	-97.8248	-23.8295	-42.1427	36.2897	-3.3470	 1.5361	 
   444	-97.7473	-23.7831	 2.3502	-16.5736	-3.2782	 1.4357	 
   445	-97.7434	-23.7092	-17.9165	 0.9556	-3.5020	 1.4434	 
   446	-97.7860	-23.8063	-7.7208	-8.0194	-4.0786	 1.1690	 
   447	-97.8983	-23.8019	-23.1128	 8.5344	-4.7283	 0.9217	 
   448	-98.0841	-23.7699	-29.6758	24.0021	-5.3136	 0.5006	 
   449	-98.0880	-23.8439	-12.5041	-1.0430	-5.8729	 0.5197	 
   450	-98.0493	-23.8207	18.5479	-27.0527	-6.1354	 0.5041	 
   451	-98.0454	-23.7467	-33.1577	41.6681	-6.3548	 0.5852	 
   452	-98.1577	-23.7423	41.7663	-21.0827	-6.4753	 0.4422	 
   453	-98.1268	-23.8671	-23.1128	 8.5344	-6.8841	 0.4807	 
   454	-97.7821	-23.7323	-33.1577	41.6681	-6.5528	 0.3959	 
   455	-97.3291	-23.6760	 9.3484	17.2762	-6.1741	 0.4810	 
   456	-97.2517	-23.6297	14.4184	-21.0299	-6.2817	 0.5582	 
   457	-97.2595	-23.7776	27.8032	-25.9723	-6.5097	 0.4924	 
   458	-97.4840	-23.7688	23.3640	-19.4977	-6.9141	 0.6043	 
   459	-97.5228	-23.7920	-0.9479	-5.3102	-6.9228	 0.4575	 
   460	-97.6699	-23.7368	-5.4662	15.0625	-6.9959	 0.4846	 
   461	-97.6699	-23.7368	20.9279	-23.4336	-6.8453	 0.5039	 
   462	-97.5963	-23.7644	-0.0003	-0.0001	-6.7636	 0.6236	 
   463	-97.7473	-23.7831	46.7141	-45.5873	-6.8711	 0.7008	 
   464	-97.9061	-23.9499	-19.0302	27.7552	-7.0992	 0.6351	 
   465	-98.0610	-24.0427	-6.1441	 2.2686	-7.2541	 0.5424	 
   466	-98.1345	-24.0151	-28.7908	16.8158	-7.3616	 0.6196	 
   467	-98.1694	-23.9643	 6.4797	-22.5965	-7.3573	 0.6930	 
   468	-98.3165	-23.9090	43.1009	-40.3173	-7.3917	 0.7432	 
   469	-98.2817	-23.9598	-28.7908	16.8158	-7.2067	 0.7123	 
   470	-98.3204	-23.9830	-2.0890	-10.0990	-7.2411	 0.7625	 
   471	-98.3591	-24.0062	 8.2746	-18.7612	-7.3487	 0.8397	 
   472	-98.0571	-23.9687	14.4184	-21.0299	-7.0862	 0.8552	 
   473	-97.6041	-23.9124	-6.1441	 2.2686	-6.7162	 0.7936	 
   474	-97.4531	-23.8936	-6.8723	-3.1226	-6.7506	 0.8438	 
   475	-97.6350	-23.7876	18.5479	-27.0527	-6.8324	 0.7240	 
   476	-97.7512	-23.8571	-33.9838	18.7333	-7.0561	 0.7317	 
   477	-97.7899	-23.8803	35.7868	-37.6165	-7.1680	 0.7355	 
   478	-97.7899	-23.8803	20.6985	-7.6433	-7.0174	 0.7549	 
   479	-97.7551	-23.9311	35.9661	-45.3668	-7.0174	 0.7549	 
   480	-97.8286	-23.9035	18.5807	-12.5213	-6.9830	 0.7047	 
   481	-97.7899	-23.8803	 9.9792	-14.5553	-6.9486	 0.6545	 
   482	-97.9022	-23.8759	-12.5041	-1.0430	-7.1680	 0.7355	 
   483	-98.0145	-23.8715	-12.5041	-1.0430	-7.3573	 0.6930	 
   484	-97.9835	-23.9963	-28.7908	16.8158	-7.5810	 0.7006	 
   485	-98.0184	-23.9455	14.4184	-21.0299	-7.5423	 0.7238	 
   486	-98.2390	-23.8626	 6.5092	-2.4038	-7.6542	 0.7276	 
   487	-98.2468	-24.0106	-33.9838	18.7333	-7.6972	 0.6311	 
   488	-98.2855	-24.0338	16.4888	-16.9590	-7.7360	 0.6079	 
   489	-98.0997	-24.0659	-8.6940	-12.4954	-8.3513	 0.3103	 
   490	-97.6467	-24.0096	27.8032	-25.9723	-10.1542	 0.1514	 
   491	-97.4996	-24.0648	-36.2363	52.8505	-12.4258	 0.9153	 
   492	-97.6080	-23.9864	 5.1959	-7.5788	-14.3273	 2.8918	 
   493	-97.4996	-24.0648	22.4020	-32.6741	-15.3251	 4.9845	 
   494	-97.5693	-23.9632	-11.9757	17.4662	-16.0305	 6.3320	 
   495	-97.7047	-23.6860	19.8715	-35.6754	-15.3335	 6.1121	 
   496	-97.4994	-23.3480	26.0153	-37.9441	-12.9802	 4.8308	 
   497	-96.9649	-22.4546	-13.1332	-6.0209	-8.0581	 3.3882	 
   498	-96.1632	-21.4728	-24.7737	-15.2541	-1.5785	 2.3824	 
   499	-95.6752	-20.7505	-37.6171	-14.4473	 4.2519	 3.6780	 
   500	-95.3460	-20.1950	-54.4231	-35.9044	11.3487	12.5274	 
   501	-95.5124	-19.7930	-81.7798	-37.2727	27.0730	25.1255	 
   502	-96.1047	-19.6461	-79.8738	-60.7665	41.5258	24.9989	 
   503	-96.7204	-19.9431	-83.7964	-53.1332	48.8056	23.6227	 
   504	-96.7513	-19.8183	-62.8974	-71.3458	50.5865	20.8660	 
   505	-96.3254	-19.5632	-96.4036	-54.6627	52.4794	19.3799	 
   506	-96.0660	-19.6229	-77.7896	-74.8802	52.1994	17.7965	 
   507	-95.5316	-19.4462	-76.2229	-71.7479	52.0314	16.8465	 
   508	-94.8385	-19.1028	-89.4616	-68.1338	51.1620	15.4058	 
   509	-94.2538	-18.6809	-93.0404	-62.9140	51.1920	14.6450	 
   510	-94.2073	-18.5097	-94.5032	-62.3739	50.9467	14.2858	 
   511	-94.2073	-18.5097	-95.5181	-59.3003	50.8132	13.9228	 
   512	-94.1376	-18.6113	-79.8857	-78.7542	50.2366	13.6484	 
   513	-94.1686	-18.4865	-100.4067	-40.1403	49.1522	12.9993	 
   514	-94.1686	-18.4865	-86.4433	-56.8413	48.4508	12.5086	 
   515	-94.2034	-18.4357	-80.4999	-72.6799	47.8785	12.3077	 
   516	-94.5480	-18.5705	-75.0528	-73.4544	47.6503	11.6048	 
   517	-94.9352	-18.8024	-78.4173	-72.2120	46.7381	11.3419	 
   518	-95.2876	-19.0851	-66.2760	-76.6953	45.5892	10.8665	 
   519	-95.7832	-19.2386	-78.8398	-76.8539	44.5564	10.4607	 
   520	-96.3602	-19.5124	-69.9271	-89.8532	43.6140	 9.6842	 
   521	-96.8288	-19.8647	-79.1095	-69.3700	43.2870	 9.8424	 
   522	-97.0959	-19.9531	-99.3160	-52.0879	42.7922	 9.6878	 
   523	-97.4018	-20.0646	-76.2229	-71.7479	44.3930	10.8584	 
   524	-97.5954	-20.1806	-79.3822	-77.8156	45.9895	11.9556	 
   525	-97.7968	-20.4445	-96.0392	-61.8067	47.6979	13.0490	 
   526	-98.2925	-20.5980	-83.0057	-58.1107	49.1654	14.4938	 
   527	-98.9469	-20.9182	-94.6350	-53.8164	51.6614	16.9081	 
   528	-99.4812	-21.0949	-68.0471	-68.0573	57.2903	22.4013	 
   529	-100.0194	-21.3456	-82.4912	-44.9190	65.7553	31.0079	 
   530	-100.4066	-21.5775	-48.9815	-65.9889	71.0230	37.3466	 
   531	-100.7900	-21.7354	-53.9660	-53.5405	72.7021	43.0238	 
   532	-101.0262	-21.9486	-75.0931	-35.3937	60.5125	42.8769	 
   533	-101.0418	-22.2446	-57.5643	-37.2184	40.2575	30.7524	 
   534	-101.0147	-22.4434	-67.1787	-25.9841	25.8065	16.9344	 
   535	-101.3323	-22.7769	-42.8668	-40.1716	16.5026	 8.6751	 
   536	-101.4757	-23.3644	-41.4332	-35.4908	11.8206	 5.3062	 
   537	-101.4138	-23.6140	-49.0892	-20.8190	 8.8991	 5.1856	 
   538	-101.4759	-24.0812	-22.2004	-36.9327	 7.2770	 5.5596	 
   539	-101.5418	-24.6223	-34.6713	-22.8069	 5.5947	 5.5436	 
   540	-101.1779	-24.8344	-29.6448	-17.3912	 3.5766	 4.9019	 
   541	-100.8798	-24.8709	-16.6988	-22.1716	 2.2083	 4.5076	 
   542	-100.8489	-24.9957	19.8715	-35.6754	 1.2272	 4.3451	 
   543	-100.8566	-25.1437	-3.8225	-30.6746	 0.5388	 4.0745	 
   544	-100.8605	-25.2177	-3.2816	-14.4940	-0.2186	 3.9044	 
   545	-100.7870	-25.2453	-19.5584	-12.9817	-0.7393	 3.3095	 
   546	-100.8257	-25.2685	-20.3121	-16.9016	-1.3934	 2.9888	 
   547	-100.8296	-25.3425	20.9445	-49.8281	-1.9183	 2.9577	 
   548	-100.9031	-25.3148	 0.8478	-20.5169	-2.0087	 2.6912	 
   549	-100.8335	-25.4164	 2.9029	-29.4096	-2.2454	 2.4787	 
   550	-100.9457	-25.4120	14.9912	-41.1452	-2.2153	 2.3552	 
   551	-101.0929	-25.3568	22.4020	-32.6741	-2.3745	 2.1891	 
   552	-100.9109	-25.4628	-15.7043	-18.6030	-2.5725	 1.9998	 
   553	-100.4927	-25.3557	-18.3262	-4.1033	-2.2799	 1.8917	 
   554	-100.0010	-25.2762	-23.6879	-6.9589	-2.2713	 2.0385	 
   555	-99.7029	-25.3127	-0.5877	-35.3925	-1.9443	 1.8803	 
   556	-99.6603	-25.2155	-14.7311	-14.7642	-1.9874	 1.7837	 
   557	-99.7338	-25.1879	-4.5646	-18.5183	-2.2842	 1.8184	 
   558	-99.7416	-25.3359	 6.3441	-34.4287	-2.4779	 1.7025	 
   559	-99.8152	-25.3083	-3.2816	-14.4940	-2.8953	 1.5942	 
   560	-99.7029	-25.3127	-4.5646	-18.5183	-3.6439	 1.5708	 
   561	-99.7377	-25.2619	 3.8354	-12.2867	-4.2807	 1.5435	 
   562	-99.8500	-25.2575	22.4020	-32.6741	-5.0595	 1.6437	 
   563	-99.7416	-25.3359	-17.7465	12.7376	-5.5414	 1.7092	 
   564	-99.7765	-25.2851	20.9279	-23.4336	-5.9071	 1.8442	 
   565	-99.8500	-25.2575	-38.1066	14.0710	-6.1696	 1.8287	 
   566	-99.8887	-25.2806	-23.1095	 2.8732	-6.4621	 1.9367	 
   567	-99.8500	-25.2575	-23.1095	 2.8732	-6.7590	 1.9714	 
   568	-99.6216	-25.1923	-25.1740	30.0239	-6.7547	 2.0447	 
   569	-99.0563	-25.1404	-12.0685	 4.4562	-6.6428	 2.0409	 
   570	-98.6729	-24.9825	-33.9838	18.7333	-6.4148	 2.1066	 
   571	-98.5142	-24.8157	-13.1332	-6.0209	-6.4104	 2.1800	 
   572	-98.3322	-24.9218	14.4184	-21.0299	-6.5180	 2.2572	 
   573	-98.5181	-24.8897	-4.5646	-18.5183	-6.6342	 2.1877	 
   574	-98.6264	-24.8113	-18.3262	-4.1033	-6.9267	 2.2957	 
   575	-98.4406	-24.8434	 1.4090	12.5238	-6.9267	 2.2957	 
   576	-98.3632	-24.7970	-36.7303	34.2911	-6.9224	 2.3691	 
   577	-98.3593	-24.7230	-29.6758	24.0021	-6.9999	 2.3227	 
   578	-98.2509	-24.8014	 2.3502	-16.5736	-7.0730	 2.3497	 
   579	-98.3205	-24.6998	-0.9479	-5.3102	-7.1118	 2.3265	 
   580	-98.3593	-24.7230	 6.5092	-2.4038	-7.1118	 2.3265	 
   581	-98.5412	-24.6169	-11.8221	10.5500	-7.2968	 2.3574	 
   582	-98.5064	-24.6678	-23.1128	 8.5344	-7.3699	 2.3844	 
   583	-98.5412	-24.6169	28.9116	-35.0778	-7.3699	 2.3844	 
   584	-98.3554	-24.6490	26.0153	-37.9441	-7.5162	 2.4384	 
   585	-98.0456	-24.4635	18.5479	-27.0527	-7.2881	 2.5041	 
   586	-97.5539	-24.3840	-25.1740	30.0239	-6.9095	 2.5892	 
   587	-97.2519	-24.3464	39.2467	-34.6959	-6.7245	 2.5584	 
   588	-97.2906	-24.3696	25.8948	-15.2220	-6.7632	 2.5352	 
   589	-97.3990	-24.2912	27.8032	-25.9723	-6.9826	 2.6162	 
   590	-97.3603	-24.2680	25.8948	-15.2220	-7.1289	 2.6702	 
   591	-97.1783	-24.3740	-5.6783	 8.2813	-7.0902	 2.6934	 
   592	-97.1744	-24.3000	23.3640	-19.4977	-7.0859	 2.7668	 
   593	-97.2054	-24.1752	-36.7303	34.2911	-7.0902	 2.6934	 
   594	-97.0931	-24.1797	22.4020	-32.6741	-7.0815	 2.8401	 
   595	-97.1318	-24.2029	 5.1959	-7.5788	-7.3397	 2.8980	 
   596	-97.2441	-24.1984	-0.0003	-0.0001	-7.4171	 2.8516	 
   597	-97.3525	-24.1200	24.5946	 3.9623	-7.5290	 2.8554	 
   598	-97.3525	-24.1200	 5.1959	-7.5788	-7.5634	 2.9056	 
   599	-97.4260	-24.0924	-27.0139	39.3994	-7.7140	 2.8863	 
   600	-97.3138	-24.0968	-6.8723	-3.1226	-7.7484	 2.9365	 
   601	-96.8181	-23.9433	 6.5092	-2.4038	-7.4472	 2.9752	 
   602	-96.2877	-23.8406	11.7055	-9.9825	-7.0686	 3.0603	 
   603	-96.1367	-23.8219	88.0611	-32.5174	-6.9911	 3.1066	 
   604	-96.0980	-23.7987	 0.8312	 5.8776	-7.0255	 3.1568	 
   605	-96.2064	-23.7203	 0.8312	 5.8776	-7.1718	 3.2108	 
   606	-96.2064	-23.7203	26.0153	-37.9441	-7.2493	 3.1645	 
   607	-96.1715	-23.7711	-0.9479	-5.3102	-7.3525	 3.3150	 
   608	-96.1289	-23.6739	42.7970	-31.5089	-7.3482	 3.3884	 
   609	-96.1250	-23.5999	 5.1959	-7.5788	-7.1546	 3.5043	 
   610	-96.1250	-23.5999	-12.0685	 4.4562	-7.2277	 3.5313	 
   611	-96.2760	-23.6187	39.6689	-8.4635	-7.3052	 3.4850	 
   612	-96.2760	-23.6187	22.4020	-32.6741	-7.4127	 3.5622	 
   613	-96.3496	-23.5910	23.3640	-19.4977	-7.5977	 3.5930	 
   614	-96.3535	-23.6650	-28.7908	16.8158	-7.6709	 3.6200	 
   615	-96.5006	-23.6098	-20.5043	36.9957	-7.8215	 3.6007	 
   616	-96.4619	-23.5866	16.4888	-16.9590	-7.8860	 3.7744	 
   617	-96.1211	-23.5259	22.7003	-2.1977	-7.6493	 3.9869	 
   618	-95.5210	-23.5248	15.0205	 0.6381	-6.3025	 4.0143	 
   619	-95.2112	-23.3393	-0.9479	-5.3102	-5.3732	 3.9336	 
   620	-95.0176	-23.2233	20.9279	-23.4336	-4.6418	 3.6635	 
   621	-94.9789	-23.2001	25.0574	-29.4564	-4.4137	 3.7292	 
   622	-95.1608	-23.0941	11.7055	-9.9825	-4.6073	 3.6133	 
   623	-95.0524	-23.1725	23.3640	-19.4977	-4.8397	 3.4742	 
   624	-95.0486	-23.0985	18.5807	-12.5213	-4.7709	 3.3738	 
   625	-95.0486	-23.0985	33.5745	-18.0579	-4.9172	 3.4278	 
   626	-95.0834	-23.0477	31.9326	-31.9952	-4.9559	 3.4046	 
   627	-94.9711	-23.0521	25.8948	-15.2220	-4.5385	 3.5129	 
   628	-95.0486	-23.0985	32.5248	-40.3478	-1.6125	 4.3441	 
   629	-95.0137	-23.1493	11.7565	-36.4272	 4.9193	 6.1304	 
   630	-95.2344	-23.0665	-45.0774	-11.6925	13.3669	13.8063	 
   631	-95.0330	-22.8025	-45.2069	-36.7587	33.0375	29.9699	 
   632	-93.8285	-21.2929	-53.2342	-51.8991	51.1172	29.2537	 
   633	-92.7130	-19.3348	-65.2441	-34.3826	57.1276	26.6220	 
   634	-92.6122	-18.8444	-61.5730	-52.6433	58.8782	23.3518	 
   635	-91.4235	-18.3475	-69.0782	-60.1798	54.4972	18.7472	 
   636	-90.4554	-17.7677	-45.9378	-80.3070	50.1120	14.7065	 
   637	-89.4525	-17.2387	-59.9856	-77.7436	48.8639	13.1807	 
   638	-88.5580	-16.6314	-82.6268	-56.7512	48.5626	12.5048	 
   639	-87.6944	-15.8992	-65.0555	-61.6653	47.8697	11.5237	 
   640	-87.1833	-15.4497	-76.4092	-55.8610	47.3103	10.9057	 
   641	-86.6334	-14.9770	-68.2312	-63.5662	46.1441	10.1368	 
   642	-86.0835	-14.5044	-62.9052	-67.0323	45.4297	 9.4260	 
   643	-85.9634	-14.3608	-51.7556	-83.2940	45.3307	 9.0128	 
   644	-86.2615	-14.3243	-103.6249	-38.9520	45.3307	 9.0128	 
   645	-86.6797	-14.4314	-37.4390	-74.9365	45.0552	 8.7772	 
   646	-86.9585	-14.7418	-68.6755	-69.2122	44.8530	 8.5145	 
   647	-87.1056	-14.6865	-46.9276	-81.2534	44.2290	 8.0702	 
   648	-87.4502	-14.8213	-65.6175	-75.6640	43.5405	 7.7997	 
   649	-87.8840	-15.2244	-58.1731	-71.7034	43.1920	 7.5910	 
   650	-88.4531	-15.3502	-68.6755	-69.2122	42.5766	 7.2935	 
   651	-88.9914	-15.6009	-77.2144	-58.7498	42.2151	 6.8647	 
   652	-89.5335	-15.9256	-86.0830	-62.7843	41.5481	 6.3239	 
   653	-89.8123	-16.2359	-80.8714	-57.3994	41.0533	 6.1692	 
   654	-89.9672	-16.3287	-75.5995	-74.4895	40.7692	 5.7868	 
   655	-90.2770	-16.5142	-63.5379	-68.2605	40.3518	 5.6786	 
   656	-90.5868	-16.6997	-76.7763	-63.3721	40.7822	 6.0069	 
   657	-90.9314	-16.8345	-89.8077	-55.5990	40.6961	 5.8138	 
   658	-91.4270	-16.9880	-94.5032	-62.3739	39.3148	 5.1994	 
   659	-92.0853	-17.3822	-77.2817	-73.8683	38.2691	 4.5734	 
   660	-93.0804	-17.7632	-87.3562	-60.9273	37.7056	 5.1564	 
   661	-94.1956	-18.2877	-59.3641	-90.6800	45.1761	10.8316	 
   662	-95.7638	-18.8686	-74.6432	-68.3954	60.9221	23.7965	 
   663	-96.9603	-19.5135	-36.8684	-83.6560	71.5010	39.7564	 
   664	-97.8239	-20.2457	-45.5544	-54.7349	54.4535	38.3298	 
   665	-98.5248	-20.7371	-49.9726	-51.0793	31.2929	19.3691	 
   666	-99.1056	-21.0850	-33.2566	-50.8422	20.3753	10.3562	 
   667	-99.5123	-21.6869	-28.0813	-54.9647	15.5172	 8.4392	 
   668	-99.6092	-22.1033	-42.1350	-37.8930	13.6629	 9.3114	 
   669	-99.4350	-22.3573	-19.6812	-48.7331	12.6735	10.2765	 
   670	-98.9666	-22.7218	-29.6608	-34.1779	11.4215	10.5889	 
   671	-98.5214	-22.8134	-12.8465	-37.3505	 9.2829	 9.8042	 
   672	-98.1497	-22.8775	26.5475	-45.4124	 8.0909	 9.2323	 
   673	-97.9639	-22.9095	-16.6988	-22.1716	 6.9119	 8.8805	 
   674	-98.0026	-22.9327	 0.8478	-20.5169	 5.6512	 8.4090	 
   675	-97.9291	-22.9604	-28.0831	 4.7097	 5.3801	 8.2467	 
   676	-97.7820	-23.0156	 1.1511	-32.5111	 5.1994	 8.3509	 
   677	-97.6697	-23.0200	25.0574	-29.4564	 4.7863	 8.3160	 
   678	-97.6697	-23.0200	18.5479	-27.0527	 4.5066	 8.0070	 
   679	-97.7432	-22.9924	 0.8478	-20.5169	 3.9472	 8.0261	 
   680	-97.5961	-23.0476	-78.9505	68.6230	 3.5987	 7.8175	 
   681	-97.6271	-22.9228	-17.7465	12.7376	 3.4050	 7.7016	 
   682	-97.7394	-22.9184	14.4184	-21.0299	 2.8930	 7.8906	 
   683	-97.7394	-22.9184	 2.9029	-29.4096	 2.6650	 7.8249	 
   684	-97.7355	-22.8444	16.2582	-30.4054	 2.2132	 7.7668	 
   685	-97.4335	-22.8069	-4.5646	-18.5183	 2.2863	 7.7398	 
   686	-96.9766	-22.6766	-23.1128	 8.5344	 2.4068	 7.8827	 
   687	-96.4848	-22.5971	39.4001	-42.8865	 2.4886	 8.0025	 
   688	-96.2951	-22.5551	22.4020	-32.6741	 2.7123	 7.9948	 
   689	-96.2564	-22.5319	 9.3484	17.2762	 2.4972	 8.1492	 
   690	-96.2603	-22.6059	-0.9479	-5.3102	 2.1703	 8.3074	 
   691	-96.2564	-22.5319	-13.1332	-6.0209	 2.0971	 8.3344	 
   692	-96.2138	-22.4347	-6.1441	 2.2686	 2.0283	 8.4348	 
   693	-96.1790	-22.4855	-12.5041	-1.0430	 1.8089	 8.5159	 
   694	-96.1751	-22.4115	 1.6686	20.1120	 1.8132	 8.5892	 
   695	-96.1751	-22.4115	 9.9792	-14.5553	 1.6712	 8.7166	 
   696	-96.2486	-22.3839	 1.6686	20.1120	 1.3787	 8.8246	 
   697	-96.4345	-22.3519	-6.1441	 2.2686	 1.2324	 8.8787	 
   698	-96.3996	-22.4027	-2.0890	-10.0990	 1.1248	 8.9559	 
   699	-96.3609	-22.3795	 8.7231	 9.8230	 1.0947	 9.0794	 
   700	-96.4693	-22.3011	-0.0003	-0.0001	 0.8753	 9.1604	 
   701	-96.5080	-22.3243	16.4888	-16.9590	 0.7333	 9.2878	 
   702	-96.5390	-22.1995	-13.1332	-6.0209	 0.4838	 9.4924	 
   703	-95.9388	-22.1984	18.5479	-27.0527	 0.8969	 9.5273	 
   704	-95.4084	-22.0957	23.3640	-19.4977	 1.2024	 9.6394	 
   705	-95.1799	-22.0306	-37.1965	 2.8647	 1.2799	 9.6858	 
   706	-95.0986	-21.9102	-18.1196	19.7348	 1.2411	 9.6626	 
   707	-95.1334	-21.8594	 8.7231	 9.8230	 0.8754	 9.7976	 
   708	-95.0638	-21.9610	-33.9838	18.7333	 0.7679	 9.8748	 
   709	-95.0947	-21.8362	-11.8221	10.5500	 0.8453	 9.9212	 
   710	-94.9437	-21.8174	23.3640	-19.4977	 0.8583	10.1413	 
   711	-94.8702	-21.8450	-13.6291	34.4570	 0.7507	10.2185	 
   712	-94.9785	-21.7666	42.7970	-31.5089	 0.9745	10.2109	 
   713	-95.0173	-21.7898	54.3939	-48.4231	 0.7766	10.6587	 
   714	-95.0134	-21.7158	-5.6455	22.8128	 0.7121	10.8325	 
   715	-95.1257	-21.7114	22.4020	-32.6741	 0.6089	10.9831	 
   716	-95.2031	-21.7578	-27.0139	39.3994	 0.4669	11.1105	 
   717	-95.2340	-21.6330	39.2008	-50.0847	 0.2475	11.1915	 
   718	-95.1257	-21.7114	15.0205	 0.6381	 0.1443	11.3421	 
   719	-95.2379	-21.7070	-6.1441	 2.2686	-0.1096	11.4733	 
   720	-95.3502	-21.7025	45.3469	-16.7449	-0.3677	11.5311	 
   721	-95.2340	-21.6330	 0.8312	 5.8776	-0.3978	11.6547	 
   722	-94.7772	-21.5027	 0.8312	 5.8776	-0.1999	11.8440	 
   723	-94.2119	-21.4508	15.0205	 0.6381	 0.2519	11.9020	 
   724	-93.9834	-21.3856	28.3783	-10.4791	 0.2606	12.0488	 
   725	-93.9408	-21.2884	 9.9792	-14.5553	 0.1616	12.2727	 
   726	-93.9060	-21.3392	28.9116	-35.0778	 0.1573	12.1993	 
   727	-94.0183	-21.3348	-12.5041	-1.0430	 0.0067	12.1800	 
   728	-94.0144	-21.2608	35.1172	-28.6731	-0.0965	12.3306	 
   729	-93.7550	-21.3205	20.9279	-23.4336	-0.1610	12.5043	 
   730	-93.7898	-21.2697	28.3783	-10.4791	-0.1610	12.5043	 
   731	-93.8634	-21.2421	23.3640	-19.4977	-0.4235	12.4888	 
   732	-93.9021	-21.2652	35.1172	-28.6731	-0.7591	12.5003	 
   733	-93.9021	-21.2652	17.5401	14.2514	-0.9398	12.6045	 
   734	-94.0492	-21.2100	30.6781	-22.1985	-1.3098	12.6661	 
   735	-94.0531	-21.2840	59.9783	-27.8077	-1.6110	12.6274	 
   736	-94.0492	-21.2100	42.8066	-2.7626	-1.6411	12.7510	 
   737	-94.1228	-21.1824	46.5496	-28.0592	-1.6755	12.8012	 
   738	-94.1654	-21.2796	33.3715	 0.7214	-1.9724	12.8358	 
   739	-94.3473	-21.1736	13.3845	-4.9425	-2.0799	12.9130	 
   740	-94.0840	-21.1592	25.8948	-15.2220	-2.0713	13.0598	 
   741	-93.5923	-21.0797	38.3578	-25.0343	-1.5979	13.4847	 
   742	-93.2516	-21.0190	 7.7064	 3.3389	 0.9752	14.0339	 
   743	-92.9883	-21.0046	13.3845	-4.9425	 5.3168	15.4294	 
   744	-93.0231	-20.9538	23.3127	-40.6945	15.9157	22.8357	 
   745	-91.2806	-19.9102	-56.6743	 5.2216	46.0542	35.9212	 
   746	-89.3328	-18.5287	-43.8929	-51.2627	61.9085	29.7670	 
   747	-88.4500	-18.1433	-56.3867	-44.5127	59.1662	21.8960	 
   748	-86.7152	-17.2477	-58.9194	-58.9832	49.8623	13.6367	 
   749	-85.7084	-16.6447	-58.0509	-62.6400	46.3508	11.1100	 
   750	-84.8371	-15.7645	-73.1193	-64.7225	45.2706	 9.8971	 
   751	-84.0548	-15.1527	-55.8567	-63.4502	43.1276	 8.4019	 
   752	-83.4623	-14.5829	-81.9351	-39.2770	41.3029	 6.6018	 
   753	-82.7614	-14.0914	-52.1096	-66.4456	40.3648	 5.8987	 
   754	-82.5949	-13.7767	-52.8361	-62.9163	39.9388	 5.6437	 
   755	-82.5096	-13.5823	-44.8032	-64.1957	39.9946	 5.3232	 
   756	-82.7768	-13.6707	-57.3708	-61.2418	39.6288	 4.8210	 
   757	-83.1175	-13.7314	-41.3023	-72.0106	39.4395	 4.7785	 
   758	-83.6209	-14.0329	-71.2153	-52.6812	39.8526	 4.8134	 
   759	-83.8842	-14.0472	-50.6544	-84.9001	40.7347	 5.1998	 
   760	-83.7449	-14.2504	-50.1787	-71.7316	41.1607	 5.4548	 
   761	-83.9733	-14.3156	-56.1251	-72.4596	41.6426	 5.3894	 
   762	-84.1204	-14.2604	-52.3742	-77.9303	41.4533	 5.3468	 
   763	-84.5425	-14.4415	-50.6097	-75.8831	41.4920	 5.3700	 
   764	-84.9994	-14.5718	-71.6152	-74.7237	41.7588	 5.4589	 
   765	-85.3440	-14.7065	-17.5907	-98.3086	41.6469	 5.4627	 
   766	-85.4950	-14.7253	-55.8567	-63.4502	41.5178	 5.1731	 
   767	-85.6112	-14.7948	-73.0278	-58.7214	41.3155	 4.9104	 
   768	-86.2887	-14.8423	-46.0564	-70.2551	40.8293	 4.9025	 
   769	-86.6799	-15.1482	-71.6833	-70.8003	40.4377	 4.5973	 
   770	-87.0206	-15.2089	-80.1394	-54.4836	39.9128	 4.5663	 
   771	-87.5898	-15.3348	-67.4875	-66.8021	39.5341	 4.4812	 
   772	-87.9770	-15.5667	-54.5671	-70.1112	39.6890	 4.5739	 
   773	-88.7359	-15.7346	-71.4922	-84.0651	40.0548	 5.0760	 
   774	-89.5064	-16.1244	-77.2817	-73.8683	41.2383	 6.1384	 
   775	-90.4241	-16.4590	-60.4197	-74.9595	41.8193	 7.1233	 
   776	-91.4231	-16.9140	-75.7450	-70.6124	43.9023	 9.5028	 
   777	-92.6041	-17.2629	-66.2564	-64.2954	50.3744	14.0848	 
   778	-93.9399	-17.7046	-66.5666	-42.8903	61.1844	23.1749	 
   779	-94.5556	-18.0017	-53.8268	-45.4580	73.7164	36.7644	 
   780	-95.1674	-18.2247	-62.6841	-35.3279	77.1049	49.2696	 
   781	-95.7831	-18.5218	-53.5014	-31.0346	64.7862	48.8330	 
   782	-96.3561	-18.7217	-42.9073	-26.2503	48.9897	41.3594	 
   783	-96.6194	-18.7360	-48.6577	-14.1188	35.8133	33.3305	 
   784	-96.3522	-18.6477	-21.0382	-34.3257	27.0476	27.2339	 
   785	-96.1470	-18.3097	 5.3656	-44.0755	22.2367	24.2125	 
   786	-96.5612	-18.3429	-29.0890	-13.6606	19.7494	22.5821	 
   787	-97.3667	-18.6819	-23.2998	-2.2668	17.5463	21.9712	 
   788	-98.2339	-18.7713	26.0153	-37.9441	15.1153	21.9318	 
   789	-98.2727	-18.7945	 6.4797	-22.5965	13.1016	22.0006	 
   790	-98.3733	-18.5681	-13.1332	-6.0209	10.9030	22.1003	 
   791	-98.4817	-18.4897	26.0153	-37.9441	 8.5795	21.9837	 
   792	-98.3655	-18.4201	35.1172	-28.6731	 6.5615	21.9792	 
   793	-98.1719	-18.3041	20.6985	-7.6433	 5.2578	22.0483	 
   794	-97.6802	-18.2246	 0.8312	 5.8776	 4.6942	21.9940	 
   795	-97.0723	-18.0756	-19.0302	27.7552	 3.9541	22.1174	 
   796	-96.5844	-18.0701	-13.1332	-6.0209	 3.5368	22.0091	 
   797	-96.4334	-18.0513	63.8951	-43.7976	 3.0248	22.1982	 
   798	-96.5418	-17.9729	25.8948	-15.2220	 2.6935	22.2830	 
   799	-96.5418	-17.9729	 7.7064	 3.3389	 2.1858	22.5454	 
   800	-96.3908	-17.9541	45.3469	-16.7449	 2.3278	22.4180	 
   801	-96.3482	-17.8569	 1.4090	12.5238	 1.7814	22.6573	 
   802	-96.3830	-17.8061	41.7663	-21.0827	 1.5964	22.6881	 
   803	-96.4566	-17.7785	-18.1196	19.7348	 1.4501	22.7421	 
   804	-96.3830	-17.8061	23.3640	-19.4977	 1.1919	22.8000	 
   805	-96.4953	-17.8017	50.9888	-34.5338	 0.8693	23.0316	 
   806	-96.7160	-17.7189	33.5745	-18.0579	 0.5036	23.1666	 
   807	-96.7160	-17.7189	39.6689	-8.4635	 0.5036	23.1666	 
   808	-96.7895	-17.6912	35.1172	-28.6731	 0.2110	23.2746	 
   809	-96.9366	-17.6360	30.8920	-5.2225	-0.0428	23.4059	 
   810	-97.1573	-17.5532	35.7868	-37.6165	-0.2967	23.5371	 
   811	-96.8979	-17.6128	-12.0685	 4.4562	-0.1848	23.5332	 
   812	-96.4062	-17.5333	46.5496	-28.0592	 0.0906	23.7689	 
   813	-96.0306	-17.5234	28.3783	-10.4791	 0.2886	23.9582	 
   814	-95.9145	-17.4538	43.1009	-40.3173	 0.3704	24.0779	 
   815	-95.8757	-17.4306	 9.3484	17.2762	 0.2714	24.3019	 
   816	-96.0577	-17.3246	-33.1577	41.6681	 0.0090	24.2863	 
   817	-96.1351	-17.3710	42.7970	-31.5089	-0.2449	24.4175	 
   818	-96.0616	-17.3986	20.6985	-7.6433	-0.3868	24.5449	 
   819	-96.0886	-17.1998	-0.0003	-0.0001	-0.5331	24.5989	 
   820	-96.1273	-17.2230	36.5701	-13.5040	-0.9419	24.6374	 
   821	-96.2396	-17.2186	 7.7064	 3.3389	-1.2344	24.7455	 
   822	-96.2784	-17.2418	 0.8312	 5.8776	-1.4926	24.8033	 
   823	-96.3867	-17.1634	33.3715	 0.7214	-1.7894	24.8380	 
   824	-96.4990	-17.1589	-15.5375	45.2073	-2.0476	24.8958	 
   825	-96.6461	-17.1037	15.0205	 0.6381	-2.3488	24.8571	 
   826	-96.6113	-17.1545	 1.4090	12.5238	-2.4908	24.9845	 
   827	-96.7584	-17.0993	50.9888	-34.5338	-2.7102	25.0655	 
   828	-96.7932	-17.0485	39.6689	-8.4635	-2.8608	25.0461	 
   829	-96.4525	-16.9877	42.8066	-2.7626	-2.9253	25.2199	 
   830	-95.8833	-16.8619	 8.7231	 9.8230	-2.6499	25.4555	 
   831	-95.6162	-16.7735	 0.8312	 5.8776	-2.3056	25.5908	 
   832	-95.4303	-16.8056	42.8066	-2.7626	-2.4433	25.7916	 
   833	-95.4652	-16.7548	46.5496	-28.0592	-2.5551	25.7954	 
   834	-95.5736	-16.6763	16.4029	 6.9872	-2.6197	25.9692	 
   835	-95.5736	-16.6763	22.7003	-2.1977	-2.6928	25.9962	 
   836	-95.6084	-16.6255	28.3783	-10.4791	-2.9466	26.1274	 
   837	-95.5658	-16.5283	 8.7231	 9.8230	-2.8692	26.1737	 
   838	-95.6432	-16.5747	 7.7064	 3.3389	-3.2306	26.3822	 
   839	-95.7516	-16.4963	63.8951	-43.7976	-3.1961	26.3320	 
   840	-95.9762	-16.4875	30.8920	-5.2225	-3.6006	26.4438	 
   841	-95.8717	-16.6399	16.4029	 6.9872	-3.6651	26.6176	 
   842	-96.0536	-16.5338	 7.7064	 3.3389	-3.8544	26.5750	 
   843	-96.2046	-16.5526	54.7821	-20.2289	-4.2158	26.7834	 
   844	-96.2433	-16.5758	20.6985	-7.6433	-4.2588	26.6869	 
   845	-96.3517	-16.4974	-12.5207	25.3516	-4.5084	26.8915	 
   846	-96.5724	-16.4146	13.3845	-4.9425	-4.6245	26.8219	 
   847	-96.4253	-16.4698	73.3303	-47.2816	-5.0290	26.9338	 
   848	-95.9684	-16.3395	23.3640	-19.4977	-4.7579	27.0961	 
   849	-95.3992	-16.2136	36.5701	-13.5040	-4.4180	27.1580	 
   850	-95.2056	-16.0976	20.6985	-7.6433	-4.4825	27.3317	 
   851	-95.1669	-16.0744	30.6781	-22.1985	-4.5599	27.2854	 
   852	-95.1282	-16.0513	46.5496	-28.0592	-4.7019	27.4127	 
   853	-95.1282	-16.0513	75.9929	-28.0611	-4.9644	27.3972	 
   854	-95.1978	-15.9497	11.7055	-9.9825	-5.3688	27.5091	 
   855	-95.1591	-15.9265	41.7663	-21.0827	-5.4075	27.4859	 
   856	-95.0468	-15.9309	-12.5207	25.3516	-5.7388	27.5707	 
   857	-95.0855	-15.9541	30.8920	-5.2225	-6.1131	27.5590	 
   858	-95.3101	-15.9452	-20.5043	36.9957	-6.5563	27.6477	 
   859	-95.5037	-16.0612	15.0205	 0.6381	-6.6853	27.9952	 
   860	-95.5812	-16.1076	45.3469	-16.7449	-6.2851	28.4472	 
   861	-95.7012	-16.2511	 9.5565	25.8956	-5.2825	28.9765	 
   862	-95.4031	-16.2876	-0.0003	-0.0001	-2.7221	30.5800	 
   863	-94.0480	-16.1927	-32.9104	 6.4922	 7.8808	36.1481	 
   864	-91.9958	-15.6803	-41.6362	-16.7116	39.9458	43.2370	 
   865	-90.8421	-15.8493	-64.3375	-18.3371	57.5333	33.5191	 
   866	-90.7376	-16.0017	-69.5446	-45.8764	59.9114	26.3063	 
   867	-89.2159	-15.5921	-47.1642	-57.9638	53.5592	18.6813	 
   868	-87.2605	-14.7793	-49.8422	-67.2829	48.9975	14.1809	 
   869	-85.7968	-14.0460	-42.0003	-54.0232	47.9215	12.4042	 
   870	-83.6593	-12.6225	-49.7036	-62.3862	45.9850	10.6079	 
   871	-79.5740	-9.8175	-61.5730	-52.6433	43.3428	 8.8847	 
   872	-77.7733	-8.3807	-68.8339	-42.0531	41.6559	 7.5210	 
   873	-77.3666	-7.7788	-50.4956	-63.7805	40.8340	 6.8874	 
   874	-77.5215	-7.8716	-65.8774	-38.7967	40.5584	 6.0146	 
   875	-77.9435	-8.0527	-43.8607	-62.7821	40.4680	 5.7481	 
   876	-78.6367	-8.3962	-68.8339	-42.0531	40.7735	 5.8602	 
   877	-79.5234	-8.8556	-79.4815	-33.7733	40.6918	 5.7405	 
   878	-80.4876	-9.3613	-71.6459	-54.2839	40.0678	 5.2962	 
   879	-81.3743	-9.8207	-49.2878	-70.5612	40.1022	 5.2460	 
   880	-82.4082	-10.2249	-64.2816	-65.0247	40.4852	 5.4044	 
   881	-83.5233	-10.7495	-62.3662	-61.0465	40.6057	 5.5473	 
   882	-84.1700	-10.9217	-64.3483	-53.4551	40.6874	 5.6671	 
   883	-84.3132	-10.7925	-53.2177	-78.9308	40.8380	 5.6864	 
   884	-84.6539	-10.8532	-67.4875	-66.8021	41.6857	 6.1231	 
   885	-85.1456	-10.9327	-72.4709	-48.6191	42.3184	 6.7141	 
   886	-85.3780	-11.0719	-73.2955	-40.4056	42.7143	 7.0927	 
   887	-85.8775	-11.2994	-62.8156	-48.3611	44.0138	 7.5874	 
   888	-86.4157	-11.5500	-68.5832	-58.7509	44.2634	 8.0200	 
   889	-87.0623	-11.7223	-88.1409	-23.4539	44.2505	 7.7999	 
   890	-87.5541	-11.8018	-70.0973	-56.5425	43.7944	 7.6684	 
   891	-88.1271	-12.0017	-80.8050	-47.3784	43.2221	 7.4675	 
   892	-88.8086	-12.1231	-73.6207	-53.5547	42.7359	 7.4596	 
   893	-89.4552	-12.2954	-73.8599	-44.2829	42.3185	 7.3513	 
   894	-90.4851	-12.6256	-73.0628	-38.3550	43.5622	 8.8037	 
   895	-92.3785	-12.9712	-54.3847	-60.6577	51.2049	14.8652	 
   896	-94.1674	-13.4692	-60.9769	-40.6062	63.2719	26.9021	 
   897	-95.7935	-13.7264	-67.1653	-23.2153	74.6254	43.3256	 
   898	-97.4468	-13.7849	-41.0405	-52.3160	75.5103	58.3671	 
   899	-98.6277	-14.1338	-56.0479	-27.3205	62.1940	61.2976	 
   900	-99.7235	-14.2884	-61.5871	-12.8680	45.1934	57.4922	 
   901	-100.0835	-14.0024	-52.2746	-5.0992	29.2983	52.1540	 
   902	-100.2497	-12.8836	-53.6532	 8.9414	16.9572	46.8904	 
   903	-100.5980	-12.3755	-55.6604	20.5528	12.1891	43.3284	 
   904	-100.9349	-12.3623	-37.1965	 2.8647	10.2954	40.3543	 
   905	-101.0625	-11.9371	-12.5041	-1.0430	 8.7073	38.1294	 
   906	-101.3451	-11.6046	 6.5092	-2.4038	 6.8741	36.8197	 
   907	-101.6006	-11.4710	-11.8221	10.5500	 4.5204	36.1895	 
   908	-101.7516	-11.4897	-0.9479	-5.3102	 2.1840	35.8527	 
   909	-101.7981	-11.6609	-23.1095	 2.8732	 0.1444	35.4814	 
   910	-101.8755	-11.7073	20.6985	-7.6433	-1.5853	35.2954	 
   911	-101.7710	-11.8597	15.0205	 0.6381	-3.1988	35.1791	 
   912	-101.7710	-11.8597	-33.7602	63.8184	-4.2228	35.5572	 
   913	-101.8485	-11.9061	-11.9757	17.4662	-5.2640	35.6418	 
   914	-101.8524	-11.9801	-5.4662	15.0625	-6.4645	35.5603	 
   915	-101.9956	-11.8509	-25.1740	30.0239	-7.0926	35.6798	 
   916	-101.9607	-11.9017	59.7656	-37.7747	-7.8628	35.9267	 
   917	-102.0343	-11.8741	28.3783	-10.4791	-8.6415	36.0268	 
   918	-102.2589	-11.8652	22.7003	-2.1977	-9.0933	35.9688	 
   919	-102.1466	-11.8697	55.3265	-31.3001	-9.6742	36.2582	 
   920	-101.6936	-11.8133	 1.4090	12.5238	-9.7086	36.3084	 
   921	-101.2367	-11.6830	 1.3647	28.9204	-9.3686	36.3703	 
   922	-100.8960	-11.6223	22.7003	-2.1977	-9.3213	36.5402	 
   923	-100.7449	-11.6035	42.8066	-2.7626	-9.5665	36.8182	 
   924	-100.8146	-11.5019	-31.0984	32.2115	-9.5278	36.8414	 
   925	-100.8921	-11.5483	69.0312	-4.7621	-9.8203	36.9494	 
   926	-100.9617	-11.4467	59.9783	-27.8077	-10.1946	36.9377	 
   927	-100.8494	-11.4511	22.7003	-2.1977	-10.1172	36.9841	 
   928	-100.6984	-11.4324	76.0857	-15.0511	-10.3323	37.1385	 
   929	-100.7720	-11.4048	24.5946	 3.9623	-10.3710	37.1153	 
   930	-100.8843	-11.4003	16.4029	 6.9872	-10.5904	37.1963	 
   931	-100.9966	-11.3959	-44.7139	45.9353	-10.7367	37.2503	 
   932	-101.1785	-11.2899	18.5807	-12.5213	-10.9906	37.3815	 
   933	-101.2560	-11.3363	11.7055	-9.9825	-11.2143	37.3892	 
   934	-101.3334	-11.3826	17.5401	14.2514	-11.3993	37.4200	 
   935	-101.5115	-11.2026	-20.5043	36.9957	-11.6187	37.5010	 
   936	-101.3992	-11.2070	-15.5375	45.2073	-11.9457	37.6592	 
   937	-101.0197	-11.1231	-25.1740	30.0239	-11.6101	37.6478	 
   938	-100.6016	-11.0160	38.3578	-25.0343	-11.3003	37.8332	 
   939	-100.2260	-11.0061	-66.6063	90.4532	-11.2142	38.0263	 
   940	-100.2608	-10.9553	 1.3647	28.9204	-11.2787	38.2001	 
   941	-100.4467	-10.9232	15.0205	 0.6381	-11.3561	38.1537	 
   942	-100.4079	-10.9000	41.7663	-21.0827	-11.5412	38.1846	 
   943	-100.2957	-10.9045	-12.5207	25.3516	-11.6487	38.2618	 
   944	-100.3653	-10.8029	22.7003	-2.1977	-11.6530	38.1884	 
   945	-100.3653	-10.8029	 0.8312	 5.8776	-11.9370	38.4432	 
   946	-100.3305	-10.8537	 1.4090	12.5238	-11.9413	38.3698	 
   947	-100.4350	-10.7013	15.0205	 0.6381	-12.2683	38.5280	 
   948	-100.5860	-10.7200	13.3845	-4.9425	-12.5651	38.5627	 
   949	-100.6596	-10.6924	45.3469	-16.7449	-12.8534	38.7441	 
   950	-100.7292	-10.5908	 6.5092	-2.4038	-12.9609	38.8213	 
   951	-100.7679	-10.6140	30.8920	-5.2225	-13.0728	38.8251	 
   952	-100.8802	-10.6096	27.7685	19.1706	-13.4041	38.9100	 
   953	-100.7641	-10.5400	26.3170	11.0104	-13.4428	38.8868	 
   954	-100.2336	-10.4373	13.3845	-4.9425	-13.0598	39.0452	 
   955	-99.6683	-10.3854	39.6689	-8.4635	-12.7156	39.1805	 
   956	-99.5483	-10.2419	-7.8577	42.3715	-12.5263	39.2230	 
   957	-99.2889	-10.3015	 1.6686	20.1120	-12.6295	39.3736	 
   958	-99.3585	-10.1999	27.8032	-25.9723	-12.6295	39.3736	 
   959	-99.3237	-10.2507	-6.3150	31.7562	-12.8533	39.3813	 
   960	-99.3237	-10.2507	 1.3647	28.9204	-12.9608	39.4585	 
   961	-99.2772	-10.0795	17.5401	14.2514	-12.8834	39.5048	 
   962	-99.2036	-10.1071	26.3170	11.0104	-12.8834	39.5048	 
   963	-99.2424	-10.1303	28.3783	-10.4791	-13.0640	39.6090	 
   964	-99.3895	-10.0751	-15.5375	45.2073	-13.3523	39.7904	 
   965	-99.3895	-10.0751	26.3170	11.0104	-13.3222	39.6669	 
   966	-99.4282	-10.0983	13.3845	-4.9425	-13.4986	39.8444	 
   967	-99.5018	-10.0707	28.3783	-10.4791	-13.8299	39.9293	 
   968	-99.5753	-10.0431	24.5946	 3.9623	-13.9761	39.9833	 
   969	-99.6489	-10.0154	38.3578	-25.0343	-14.1267	39.9640	 
   970	-99.7224	-9.9878	 1.6686	20.1120	-14.2730	40.0180	 
   971	-99.4243	-10.0243	 9.3484	17.2762	-14.0106	40.0335	 
   972	-98.8551	-9.8984	-13.6291	34.4570	-13.6276	40.1920	 
   973	-98.5454	-9.7129	39.6689	-8.4635	-13.2833	40.3272	 
   974	-98.2899	-9.8465	46.9265	-37.5318	-13.2790	40.4006	 
   975	-98.3595	-9.7449	13.3845	-4.9425	-13.3435	40.5744	 
   976	-98.3595	-9.7449	15.5307	60.1235	-13.3736	40.6979	 
   977	-98.3595	-9.7449	76.0857	-15.0511	-13.3435	40.5744	 
   978	-98.2511	-9.8233	-12.5207	25.3516	-13.3823	40.5512	 
   979	-98.2472	-9.7493	24.5946	 3.9623	-13.4898	40.6284	 
   980	-98.2472	-9.7493	70.3149	-19.7797	-13.4124	40.6747	 
   981	-98.3595	-9.7449	45.9187	 3.7724	-13.6404	40.6090	 
   982	-98.5105	-9.7637	 1.3647	28.9204	-14.0449	40.7209	 
   983	-98.5841	-9.7361	 9.3484	17.2762	-14.3417	40.7555	 
   984	-98.6228	-9.7593	52.9732	-6.5167	-14.3504	40.6088	 
   985	-98.7738	-9.7780	18.5461	32.6217	-14.7204	40.6704	 
   986	-98.9209	-9.7228	41.7663	-21.0827	-15.0173	40.7051	 
   987	-98.9596	-9.7460	17.5401	14.2514	-15.3959	40.6200	 
   988	-98.9984	-9.7692	35.7521	 7.5264	-15.9165	40.6623	 
   989	-98.7738	-9.7780	39.6689	-8.4635	-16.1876	40.5000	 
   990	-98.2434	-9.6753	20.6985	-7.6433	-16.1188	40.3997	 
   991	-97.7129	-9.5727	-6.3150	31.7562	-16.1102	40.5464	 
   992	-97.5967	-9.5031	88.0611	-32.5174	-16.1145	40.4730	 
   993	-97.4883	-9.5815	-15.5375	45.2073	-16.0198	40.8129	 
   994	-97.0587	-9.9692	15.0205	 0.6381	-15.5031	42.6087	 
   995	-95.6107	-10.2486	-29.6758	24.0021	-14.5559	46.0073	 
   996	-93.3149	-10.8087	-23.6879	-6.9589	 0.8359	51.6813	 
   997	-91.6076	-11.1478	-0.5877	-35.3925	32.8694	51.8849	 
   998	-90.2293	-11.3257	-52.0953	-12.8495	52.4400	39.0358	 
   999	-89.1375	-11.2451	-57.1293	-34.9051	57.7307	30.5225	 
  1000	-87.7397	-11.0530	-47.4127	-52.0246	54.0332	22.2921	 
  1001	-86.3186	-10.4169	-73.0628	-38.3550	49.3077	16.2779	 
  1002	-84.8084	-9.5125	-64.6739	-45.6508	49.6904	15.1620	 
  1003	-82.6322	-8.0658	-36.2556	-73.8742	49.9012	14.9343	 
  1004	-81.0446	-7.1149	-57.5643	-37.2184	48.1583	13.2539	 
  1005	-80.3863	-6.7207	-78.0530	-10.1239	46.7683	11.8555	 
  1006	-80.3010	-6.5263	-66.1876	-40.8937	45.2837	10.7544	 
  1007	-80.6883	-6.7582	-62.6841	-35.3279	44.0013	 9.9160	 
  1008	-81.3001	-6.9813	-58.4170	-41.5515	43.7259	 9.6804	 
  1009	-81.7260	-7.2364	-56.3867	-44.5127	44.2078	 9.6149	 
  1010	-82.2604	-7.4131	-65.0830	-47.5238	44.3928	 9.5840	 
  1011	-82.9535	-7.7565	-52.8361	-62.9163	44.1905	 9.3214	 
  1012	-83.8634	-7.9431	-66.1876	-40.8937	44.7241	 9.4992	 
  1013	-84.5913	-8.2358	-50.6643	-68.5536	45.0124	 9.9550	 
  1014	-85.1605	-8.3616	-57.3201	-66.0959	45.5977	10.3761	 
  1015	-85.6909	-8.4643	-37.1234	-67.0316	46.6434	11.0020	 
  1016	-86.6008	-8.6509	-59.4412	-65.3127	48.0118	12.0335	 
  1017	-88.1574	-9.0098	-68.5281	-40.0294	49.7805	13.5170	 
  1018	-89.9036	-9.4106	-71.4028	-43.1661	50.9596	14.5060	 
  1019	-91.1891	-9.6072	-61.5623	-64.5295	51.4416	15.0776	 
  1020	-92.4358	-9.7805	-60.8572	-67.7885	52.6207	16.0666	 
  1021	-93.8065	-10.1714	-66.0345	-50.9958	53.7224	17.0092	 
  1022	-95.7037	-10.5910	-87.7641	-32.9264	54.1572	18.0482	 
  1023	-97.5274	-11.0382	-75.9810	-43.4997	55.2287	19.1143	 
  1024	-99.0104	-11.4247	-62.8156	-48.3611	56.2617	20.7945	 
  1025	-99.9899	-11.5097	-92.6020	-19.2577	62.0627	26.0367	 
  1026	-100.4661	-11.2932	-51.4792	-54.4588	72.2708	37.5980	 
  1027	-100.4467	-10.9232	-83.6756	-4.7117	79.5968	52.8849	 
  1028	-100.2104	-10.7101	-56.0479	-27.3205	74.7716	65.4994	 
  1029	-100.0709	-10.1966	-30.5949	-36.7192	59.5969	70.5030	 
  1030	-99.9198	-9.4610	-62.4412	-1.3451	43.5266	71.7142	 
  1031	-99.6137	-8.6327	-59.5664	 1.7915	30.7474	70.4357	 
  1032	-99.8807	-8.0043	-69.3107	31.7781	21.3845	69.4324	 
  1033	-100.1323	-7.7967	-41.9798	 9.8412	15.2659	68.3182	 
  1034	-100.5310	-7.5338	-32.9432	-8.0393	11.0704	66.2316	 
  1035	-101.0769	-7.2157	 1.1511	-32.5111	 7.4381	61.6504	 
  1036	-101.6963	-6.8700	-7.7208	-8.0194	 4.1412	56.4207	 
  1037	-102.0950	-6.6071	-17.7465	12.7376	 2.1270	53.3036	 
  1038	-102.4976	-6.4182	-23.6879	-6.9589	-0.0032	51.3914	 
  1039	-103.1635	-6.2437	 0.8478	-20.5169	-1.4104	50.3367	 
  1040	-103.6204	-6.3740	-17.7465	12.7376	-2.8304	49.6991	 
  1041	-104.0385	-6.4811	-17.7465	12.7376	-4.0868	49.3009	 
  1042	-103.8914	-6.5364	-18.1196	19.7348	-4.8742	49.2543	 
  1043	-103.2526	-6.5121	 9.9792	-14.5553	-5.0421	48.9415	 
  1044	-102.8344	-6.4050	-33.7602	63.8184	-5.5928	49.1073	 
  1045	-102.6873	-6.4602	-17.7003	 6.5358	-5.8983	48.9952	 
  1046	-102.6912	-6.5342	24.5946	 3.9623	-6.2770	48.9102	 
  1047	-102.6951	-6.6082	-11.9757	17.4662	-6.4964	48.9912	 
  1048	-102.6912	-6.5342	-6.8723	-3.1226	-6.9956	48.7632	 
  1049	-102.6912	-6.5342	-25.1740	30.0239	-7.2322	48.5507	 
  1050	-102.7260	-6.4834	16.4888	-16.9590	-7.6453	48.5158	 
  1051	-102.5441	-6.5894	-70.2574	77.2953	-8.1229	48.6547	 
  1052	-102.5789	-6.5386	-5.6783	 8.2813	-8.1746	48.4114	 
  1053	-102.7686	-6.5806	-17.7465	12.7376	-8.6952	48.4537	 
  1054	-102.7725	-6.6546	-20.5043	36.9957	-9.1900	48.2991	 
  1055	-102.8074	-6.6038	-11.8221	10.5500	-9.5557	48.4341	 
  1056	-102.8035	-6.5298	11.7055	-9.9825	-9.7106	48.3414	 
  1057	-102.8422	-6.5530	-6.3150	31.7562	-10.0893	48.2563	 
  1058	-102.9932	-6.5717	-35.0882	26.0006	-10.4249	48.2678	 
  1059	-102.9196	-6.5994	16.4029	 6.9872	-10.6787	48.3990	 
  1060	-102.4666	-6.5430	-12.5207	25.3516	-10.1925	48.4069	 
  1061	-102.0485	-6.4359	13.3845	-4.9425	-10.1796	48.6270	 
  1062	-101.8200	-6.3708	 5.1959	-7.5788	-9.9214	48.5691	 
  1063	-101.7077	-6.3752	23.3640	-19.4977	-9.8784	48.6657	 
  1064	-101.7504	-6.4724	 6.5092	-2.4038	-9.8827	48.5923	 
  1065	-101.8278	-6.5188	-22.8516	47.9081	-10.0634	48.6965	 
  1066	-101.7891	-6.4956	18.5807	-12.5213	-10.1709	48.7737	 
  1067	-101.7542	-6.5464	-19.0302	27.7552	-10.1709	48.7737	 
  1068	-101.8665	-6.5420	35.1172	-28.6731	-10.2097	48.7505	 
  1069	-101.9827	-6.6115	-5.6783	 8.2813	-10.2785	48.8509	 
  1070	-102.0563	-6.5839	-20.5043	36.9957	-10.3947	48.7814	 
  1071	-102.1337	-6.6303	33.5745	-18.0579	-10.6227	48.7156	 
  1072	-102.3970	-6.6447	-44.7139	45.9353	-10.8465	48.7233	 
  1073	-102.4009	-6.7187	-19.0302	27.7552	-10.9971	48.7039	 
  1074	-102.5131	-6.7142	-12.5041	-1.0430	-11.2251	48.6382	 
  1075	-102.7029	-6.7562	-12.0685	 4.4562	-11.4144	48.5957	 
  1076	-102.8539	-6.7750	-0.0003	-0.0001	-11.6038	48.5531	 
  1077	-102.5945	-6.8346	-13.6291	34.4570	-11.6726	48.6535	 
  1078	-102.0640	-6.7319	-36.7303	34.2911	-11.1089	48.7078	 
  1079	-101.7620	-6.6944	-11.9757	17.4662	-10.6314	48.5689	 
  1080	-101.5414	-6.7772	 7.7064	 3.3389	-10.5152	48.6384	 
  1081	-101.5723	-6.6524	-25.1740	30.0239	-10.5840	48.7388	 
  1082	-101.6110	-6.6756	-0.0003	-0.0001	-10.7346	48.7195	 
  1083	-101.6885	-6.7220	-29.7268	50.4468	-10.9239	48.6769	 
  1084	-101.6497	-6.6988	14.4184	-21.0299	-10.8895	48.6267	 
  1085	-101.6149	-6.7496	 1.4090	12.5238	-10.8551	48.5765	 
  1086	-101.6885	-6.7220	-12.5041	-1.0430	-10.8938	48.5534	 
  1087	-101.7698	-6.8424	 1.4090	12.5238	-11.0487	48.4606	 
  1088	-101.8434	-6.8148	 9.9792	-14.5553	-11.2381	48.4181	 
  1089	-102.0292	-6.7827	-17.7465	12.7376	-11.5005	48.4026	 
  1090	-102.1454	-6.8523	-11.9757	17.4662	-11.5737	48.4296	 
  1091	-102.2267	-6.9727	-42.3801	55.1191	-11.9437	48.4912	 
  1092	-102.2654	-6.9959	-0.9479	-5.3102	-11.7329	48.2635	 
  1093	-102.3429	-7.0422	-36.7303	34.2911	-12.3180	48.4795	 
  1094	-102.3855	-7.1394	 7.7064	 3.3389	-12.3310	48.2594	 
  1095	-102.3429	-7.0422	 5.1959	-7.5788	-12.3267	48.3328	 
  1096	-101.7350	-6.8932	-18.1196	19.7348	-11.8017	48.3638	 
  1097	-101.2471	-6.8877	-19.0302	27.7552	-11.2811	48.3215	 
  1098	-101.1697	-6.8413	 5.1959	-7.5788	-11.1993	48.4413	 
  1099	-101.1349	-6.8921	 9.9792	-14.5553	-11.0487	48.4606	 
  1100	-101.0613	-6.9197	-20.5043	36.9957	-11.1606	48.4645	 
  1101	-101.0265	-6.9705	-13.6291	34.4570	-11.2338	48.4915	 
  1102	-101.0304	-7.0445	15.0205	 0.6381	-11.1262	48.4143	 
  1103	-101.0265	-6.9705	-6.1441	 2.2686	-11.2037	48.3679	 
  1104	-100.9529	-6.9981	18.5807	-12.5213	-11.0574	48.3139	 
  1105	-101.0652	-6.9937	-19.0302	27.7552	-11.2080	48.2945	 
  1106	-101.2897	-6.9849	18.3334	22.6546	-11.3242	48.2250	 
  1107	-101.2588	-7.1097	 7.7064	 3.3389	-11.6554	48.3098	 
  1108	-101.2975	-7.1329	18.5807	-12.5213	-11.6641	48.1631	 
  1109	-101.3750	-7.1792	 1.4090	12.5238	-11.7372	48.1901	 
  1110	-101.5608	-7.1472	30.6781	-22.1985	-11.8577	48.0472	 
  1111	-101.5647	-7.2212	25.8948	-15.2220	-11.9696	48.0510	 
  1112	-101.7505	-7.1892	28.3783	-10.4791	-12.0858	47.9814	 
  1113	-101.7583	-7.3372	-11.9757	17.4662	-12.2708	48.0123	 
  1114	-101.5956	-7.0964	-5.6783	 8.2813	-12.0126	47.9544	 
  1115	-100.8484	-7.1505	-6.3150	31.7562	-11.5565	48.0859	 
  1116	-100.5503	-7.1870	-24.0439	21.9225	-11.1478	48.0474	 
  1117	-100.5116	-7.1638	 1.4090	12.5238	-10.7477	47.8622	 
  1118	-100.4767	-7.2146	12.4041	-24.7841	-10.6358	47.8583	 
  1119	-100.4032	-7.2422	46.5496	-28.0592	-10.6100	47.6614	 
  1120	-100.3684	-7.2930	-23.3784	14.8172	-10.9973	47.4296	 
  1121	-100.3684	-7.2930	-53.2888	71.0295	-11.1135	47.3600	 
  1122	-100.2948	-7.3206	-18.1196	19.7348	-11.2985	47.3909	 
  1123	-100.3335	-7.3438	 0.8312	 5.8776	-11.2641	47.3407	 
  1124	-100.4187	-7.5382	-5.6455	22.8128	-11.2985	47.3909	 
  1125	-100.4962	-7.5846	49.1041	-11.9475	-11.9008	47.9506	 
  1126	-100.3220	-7.8386	 8.7231	 9.8230	-11.4618	48.4257	 
  1127	-99.9155	-7.9535	-0.0003	-0.0001	-11.7282	50.2484	 
  1128	-99.1800	-8.2296	-25.1740	30.0239	-12.1665	53.5963	 
  1129	-97.9992	-8.5974	-23.1128	 8.5344	-11.0512	58.5821	 
  1130	-96.5938	-8.9741	-38.9573	20.5699	 5.2737	61.0628	 
  1131	-95.2350	-9.5220	-32.7573	-3.6099	39.2340	56.5441	 
  1132	-94.1743	-10.0333	-61.4500	-16.2547	57.5008	43.7641	 
  1133	-93.4039	-10.3603	-59.4693	-31.4922	62.8133	36.2549	 
  1134	-92.6335	-10.6872	-79.9816	-15.5965	63.4061	31.0882	 
  1135	-91.5533	-10.8286	-42.1798	-47.5472	62.9795	27.6473	 
  1136	-90.8331	-10.6840	-59.9929	-47.3793	61.7700	25.5075	 
  1137	-90.2252	-10.5349	-63.4637	-39.6880	60.5349	24.2019	 
  1138	-89.6483	-10.2610	-74.7562	-28.3963	60.0227	23.1166	 
  1139	-89.2223	-10.0059	-45.5544	-54.7349	60.3970	23.1283	 
  1140	-88.9900	-9.8668	-33.7795	-62.9062	61.2577	23.7851	 
  1141	-88.7538	-9.6537	-56.9851	-46.4283	62.9961	24.7549	 
  1142	-88.7073	-9.4825	-61.4334	-42.6492	64.9841	25.5202	 
  1143	-88.6646	-9.3853	-57.5792	-48.2705	66.2191	26.1886	 
  1144	-88.6569	-9.2373	-59.4693	-31.4922	66.8000	26.5364	 
  1145	-88.7653	-9.1589	-50.5910	-44.4413	66.9937	26.6523	 
  1146	-88.9124	-9.1037	-65.2441	-34.3826	66.8861	26.7295	 
  1147	-89.2144	-9.1412	-24.4315	-49.4529	66.8087	26.6831	 
  1148	-89.5125	-9.1047	-34.4370	-58.8401	66.1072	26.1925	 
  1149	-89.8493	-9.0915	-67.1900	-17.2838	65.5263	25.8447	 
  1150	-90.1513	-9.1290	-37.2238	-51.5888	65.1218	25.3194	 
  1151	-90.5656	-9.1621	-79.4367	-24.1191	64.3558	25.0025	 
  1152	-90.5308	-9.2129	-67.5153	-31.0700	63.8868	24.6509	 
  1153	-90.7902	-9.1533	-57.5643	-37.2184	63.2498	23.9865	 
  1154	-91.3555	-9.2052	-59.3056	-53.4805	62.7249	23.9555	 
  1155	-92.1918	-9.4194	-34.4172	-68.0308	61.4039	23.7310	 
  1156	-93.1714	-9.5044	-66.0345	-50.9958	59.6742	23.5451	 
  1157	-94.6736	-9.5441	-70.3498	-49.4023	60.1953	26.0515	 
  1158	-95.8738	-9.5462	-86.0199	-24.2371	64.6670	32.1969	 
  1159	-97.1554	-9.6688	-72.6024	-15.2852	72.0396	43.8307	 
  1160	-98.5802	-9.6621	-93.9648	10.2953	76.5429	58.1358	 
  1161	-99.9585	-9.4842	-64.5127	-11.7877	69.6093	70.4793	 
  1162	-101.2245	-9.3108	-62.4412	-1.3451	50.7857	74.4313	 
  1163	-102.3821	-9.2157	-32.7573	-3.6099	29.0741	73.1151	 
  1164	-103.5320	-8.9727	-37.2808	-10.6358	13.9628	71.5732	 
  1165	-104.3101	-8.7938	-38.1066	14.0710	 7.3233	69.2270	 
  1166	-105.4174	-8.4536	-17.9165	 0.9556	 4.0479	63.7269	 
  1167	-106.1103	-8.0802	-23.6879	-6.9589	 2.3733	58.7603	 
  1168	-106.2302	-7.5070	-38.9573	20.5699	 1.4305	56.0722	 
  1169	-105.9977	-6.6511	 1.4090	12.5238	 0.7891	54.6973	 
  1170	-105.2851	-5.9377	-13.8870	-10.5779	-0.2266	53.3106	 
  1171	-104.7662	-5.3402	-28.1271	-0.4843	-1.0613	53.0941	 
  1172	-104.3015	-5.0620	-12.0685	 4.4562	-1.7713	53.0938	 
  1173	-104.3595	-4.7384	 6.4797	-22.5965	-2.5243	52.9970	 
  1174	-104.3517	-4.5904	-18.3262	-4.1033	-3.1181	52.4292	 
  1175	-104.2355	-4.5208	-14.7311	-14.7642	-4.0561	52.3632	 
  1176	-104.4949	-4.4611	13.3845	-4.9425	-4.5338	51.8649	 
  1177	-104.6846	-4.5031	 5.1959	-7.5788	-5.4848	51.5788	 
  1178	-104.7969	-4.4987	-0.0003	-0.0001	-6.3669	51.1924	 
  1179	-104.8356	-4.5219	 1.3647	28.9204	-6.9952	50.6747	 
  1180	-104.9905	-4.6146	-0.9479	-5.3102	-7.8042	50.2612	 
  1181	-105.1454	-4.7074	-31.0984	32.2115	-8.2776	49.8363	 
  1182	-105.2190	-4.6798	-17.7003	 6.5358	-8.8756	49.8322	 
  1183	-105.2925	-4.6522	-12.5041	-1.0430	-9.5038	49.9517	 
  1184	-105.3700	-4.6986	-29.7268	50.4468	-9.7061	49.6891	 
  1185	-105.4126	-4.7957	15.0205	 0.6381	-10.5236	49.7661	 
  1186	-105.2964	-4.7262	33.5745	-18.0579	-10.4978	49.5691	 
  1187	-104.7002	-4.7991	-5.6783	 8.2813	-10.2784	49.4881	 
  1188	-104.3556	-4.6644	 1.6686	20.1120	-10.1579	49.6310	 
  1189	-104.0923	-4.6500	46.5496	-28.0592	-10.1622	49.5576	 
  1190	-103.9374	-4.5573	 9.1109	36.1057	-10.1966	49.6078	 
  1191	-103.8639	-4.5849	-13.6291	34.4570	-10.2052	49.4611	 
  1192	-103.9723	-4.5064	25.8948	-15.2220	-10.6354	49.7699	 
  1193	-103.7942	-4.6865	-5.4662	15.0625	-10.7172	49.6501	 
  1194	-103.8639	-4.5849	-5.6783	 8.2813	-10.8721	49.5574	 
  1195	-103.9026	-4.6081	22.7003	-2.1977	-10.9926	49.4145	 
  1196	-103.9761	-4.5804	-17.7003	 6.5358	-11.3025	49.2290	 
  1197	-103.9374	-4.5573	-12.5207	25.3516	-11.6768	49.2173	 
  1198	-104.0845	-4.5020	-20.5043	36.9957	-11.7973	49.0744	 
  1199	-104.1620	-4.5484	17.5401	14.2514	-12.0254	49.0087	 
  1200	-104.1271	-4.5992	18.5479	-27.0527	-12.3653	48.9468	 
  1201	-104.2355	-4.5208	27.8032	-25.9723	-12.4083	48.8502	 
  1202	-104.3130	-4.5672	-5.4662	15.0625	-12.8214	48.8153	 
  1203	-104.3517	-4.5904	13.3845	-4.9425	-13.0882	48.7264	 
  1204	-104.1233	-4.5252	-12.5041	-1.0430	-13.1613	48.7534	 
  1205	-103.5192	-4.4501	28.3783	-10.4791	-12.6837	48.6146	 
  1206	-103.2521	-4.3618	-11.9757	17.4662	-12.3825	48.6533	 
  1207	-103.1398	-4.3662	-5.6783	 8.2813	-12.2707	48.6495	 
  1208	-103.2482	-4.2878	38.3578	-25.0343	-12.3782	48.7267	 
  1209	-103.2869	-4.3110	-25.1740	30.0239	-12.5632	48.7575	 
  1210	-103.2172	-4.4126	30.6781	-22.1985	-12.5676	48.6841	 
  1211	-103.2521	-4.3618	-29.6758	24.0021	-12.7181	48.6648	 
  1212	-103.2869	-4.3110	-6.3150	31.7562	-12.9118	48.5488	 
  1213	-103.2482	-4.2878	-18.1196	19.7348	-13.1097	48.3596	 
  1214	-103.3256	-4.3342	 7.7064	 3.3389	-13.6304	48.4019	 
  1215	-103.5154	-4.3761	20.6985	-7.6433	-13.9746	48.2666	 
  1216	-103.5889	-4.3485	 0.8312	 5.8776	-14.3145	48.2047	 
  1217	-103.8057	-4.1917	55.3265	-31.3001	-14.7663	48.1466	 
  1218	-103.8096	-4.2657	-15.5375	45.2073	-15.3601	48.2159	 
  1219	-103.8870	-4.3121	55.1182	-40.5566	-15.6312	48.0537	 
  1220	-103.8831	-4.2381	17.5401	14.2514	-15.9367	47.9416	 
  1221	-103.6934	-4.1961	-36.2363	52.8505	-16.3110	47.9299	 
  1222	-103.0933	-4.1950	-19.0302	27.7552	-16.2078	47.7793	 
  1223	-102.6790	-4.1619	-5.4662	15.0625	-15.9797	47.8450	 
  1224	-102.3770	-4.1244	-11.9757	17.4662	-16.0185	47.8218	 
  1225	-102.3770	-4.1244	 0.8312	 5.8776	-16.2422	47.8295	 
  1226	-102.5202	-3.9952	 1.4090	12.5238	-16.1947	48.6366	 
  1227	-102.4854	-4.0460	-19.0302	27.7552	-15.8887	51.2974	 
  1228	-102.3383	-4.1012	55.3265	-31.3001	-16.9553	54.1276	 
  1229	-102.3112	-4.3000	50.9888	-34.5338	-18.2370	56.4751	 
  1230	-102.2067	-4.4524	-12.5041	-1.0430	-17.7462	58.4679	 
  1231	-102.0945	-4.4568	-17.7003	 6.5358	-10.0659	58.1808	 
  1232	-101.8506	-4.8125	-18.3262	-4.1033	 4.5460	58.2203	 
  1233	-101.6107	-5.2421	-40.2812	27.9182	22.7553	59.7053	 
  1234	-100.6313	-5.8739	-83.0685	43.7177	42.6244	55.7420	 
  1235	-99.3034	-6.2969	-68.1350	14.2890	55.7119	48.9227	 
  1236	-98.4594	-6.6515	-61.7499	-9.2845	61.9800	44.3217	 
  1237	-97.9988	-7.1639	-49.0892	-20.8190	66.1571	39.7431	 
  1238	-97.7628	-7.6675	-40.7615	-32.9651	68.2819	35.8474	 
  1239	-97.2092	-7.8376	-61.9126	-27.9287	68.9911	32.0245	 
  1240	-95.9624	-7.6643	-55.7720	-24.5361	68.4226	28.7110	 
  1241	-94.5686	-7.5462	-55.6338	-21.5510	67.4927	26.2431	 
  1242	-93.0469	-7.1365	-32.4804	-41.4580	66.5932	24.9260	 
  1243	-91.5871	-6.4772	-97.8190	15.9166	66.7824	24.3314	 
  1244	-90.6229	-5.9715	-51.2669	-46.4033	67.4450	24.1617	 
  1245	-90.2783	-5.8367	-39.3382	-60.8536	68.4648	24.3474	 
  1246	-90.2240	-5.5176	-55.8571	-42.4968	69.3727	24.5369	 
  1247	-90.4447	-5.4347	-51.5706	-36.9577	69.7643	24.8421	 
  1248	-90.6035	-5.6015	-53.1223	-28.4008	70.3538	25.3366	 
  1249	-91.0913	-5.6070	-30.1404	-44.8710	71.0682	26.0474	 
  1250	-91.2384	-5.5518	-27.3721	-59.4247	71.4598	26.3526	 
  1251	-91.5365	-5.5153	-59.4693	-31.4922	72.3936	26.9823	 
  1252	-91.6836	-5.4601	-73.1433	-8.6008	72.8627	27.3339	 
  1253	-91.7185	-5.4093	-53.9106	-33.5448	73.3618	27.5619	 
  1254	-92.0553	-5.3960	-37.6520	-63.3129	73.6889	28.0408	 
  1255	-92.4348	-5.4799	-59.8355	-33.9059	73.9643	28.2765	 
  1256	-92.6980	-5.4943	-46.5992	-50.2634	73.7278	28.7012	 
  1257	-92.5858	-5.4987	-49.9839	-42.3790	74.0505	29.1068	 
  1258	-92.6167	-5.3739	-69.8150	-19.3506	74.5454	29.2614	 
  1259	-92.8800	-5.3882	-38.7408	-64.6726	74.7821	29.4739	 
  1260	-93.4375	-5.2921	-64.3756	-15.1744	74.1109	29.4968	 
  1261	-94.1964	-5.4600	-36.2953	-56.1298	74.0852	30.3309	 
  1262	-95.0288	-5.6002	-20.9939	-50.7223	74.7008	31.9028	 
  1263	-96.0859	-5.7316	-61.4500	-16.2547	75.9189	34.1893	 
  1264	-97.1777	-5.8122	-40.5956	-43.4842	77.5199	36.6343	 
  1265	-98.4167	-5.8375	-67.7474	-7.0698	80.7135	42.0147	 
  1266	-99.7757	-6.0064	-38.4015	-21.4295	83.4768	47.0666	 
  1267	-101.8471	-6.1720	-63.6959	 7.8144	86.9377	55.7218	 
  1268	-103.8255	-5.9952	-36.0321	-28.7891	86.1954	66.6037	 
  1269	-105.2425	-5.8405	-28.2958	-5.2574	78.2801	75.5988	 
  1270	-106.9615	-5.7234	-41.2417	-0.4770	60.0290	80.3890	 
  1271	-108.2044	-5.8227	-54.4869	14.4595	38.2097	78.5128	 
  1272	-108.9090	-5.6714	-32.7573	-3.6099	22.9519	75.7506	 
  1273	-109.3077	-5.4085	11.7565	-36.4272	14.0965	73.2106	 
  1274	-109.4315	-4.9093	-12.0685	 4.4562	 6.9659	67.5973	 
  1275	-109.3229	-4.2710	-33.2793	12.2884	 3.8412	62.7537	 
  1276	-109.0711	-3.7619	-17.7003	 6.5358	 2.3046	59.4978	 
  1277	-109.0168	-3.4427	-33.2793	12.2884	 1.5038	57.3196	 
  1278	-109.4504	-3.1290	-40.2812	27.9182	 0.0966	55.6277	 
  1279	-109.7485	-3.0926	-40.2812	27.9182	-1.7064	54.8316	 
  1280	-109.8182	-2.9909	-24.0439	21.9225	-3.0919	54.7809	 
  1281	-109.7872	-3.1157	-23.1128	 8.5344	-3.8879	54.5876	 
  1282	-109.9382	-3.1345	15.0205	 0.6381	-4.9850	54.9927	 
  1283	-109.8260	-3.1389	-13.6291	34.4570	-5.4927	55.2551	 
  1284	-109.7524	-3.1665	-6.8723	-3.1226	-5.9832	55.1739	 
  1285	-109.6827	-3.2682	-13.6291	34.4570	-7.0374	55.0384	 
  1286	-109.8298	-3.2129	 2.3502	-16.5736	-7.4074	55.1000	 
  1287	-109.6440	-3.2450	-39.7637	80.5414	-7.8936	55.0922	 
  1288	-109.3420	-3.2074	 9.1109	36.1057	-8.0141	54.9492	 
  1289	-108.9626	-3.1235	-5.6783	 8.2813	-7.8378	54.7717	 
  1290	-108.5096	-3.0672	13.3845	-4.9425	-7.5839	54.6404	 
  1291	-108.1688	-3.0065	59.9783	-27.8077	-7.6183	54.6906	 
  1292	-107.9830	-3.0385	38.3578	-25.0343	-7.6270	54.5439	 
  1293	-107.9133	-3.1401	-12.5207	25.3516	-7.7819	54.4512	 
  1294	-107.9482	-3.0893	-10.5746	55.2570	-7.7862	54.3778	 
  1295	-107.8746	-3.1169	-20.5043	36.9957	-8.0272	54.0919	 
  1296	-107.8359	-3.0937	 7.7064	 3.3389	-8.1908	53.8525	 
  1297	-107.7236	-3.0982	-11.8221	10.5500	-8.6038	53.8176	 
  1298	-107.7972	-3.0705	 6.5092	-2.4038	-8.8749	53.6553	 
  1299	-107.7584	-3.0474	-39.7637	80.5414	-9.2148	53.5934	 
  1300	-107.8668	-2.9689	-0.0003	-0.0001	-9.6322	53.4851	 
  1301	-107.9791	-2.9645	38.3578	-25.0343	-9.8689	53.2727	 
  1302	-108.0178	-2.9877	17.5401	14.2514	-9.9894	53.1297	 
  1303	-108.0178	-2.9877	 9.5565	25.8956	-10.4412	53.0717	 
  1304	-107.8320	-3.0197	36.5701	-13.5040	-10.5961	52.9789	 
  1305	-107.2667	-2.9679	15.0205	 0.6381	-10.2691	52.8207	 
  1306	-106.8059	-2.7636	28.3783	-10.4791	-9.9679	52.8594	 
  1307	-106.5039	-2.7260	22.7003	-2.1977	-9.7572	52.6317	 
  1308	-106.3568	-2.7812	24.5946	 3.9623	-9.6109	52.5776	 
  1309	-106.3878	-2.6564	-6.1441	 2.2686	-9.8002	52.5351	 
  1310	-106.2406	-2.7117	15.0205	 0.6381	-9.8433	52.4386	 
  1311	-106.2368	-2.6377	-18.7664	58.2818	-9.9207	52.3922	 
  1312	-106.0161	-2.7205	 0.8312	 5.8776	-9.8906	52.2686	 
  1313	-106.0509	-2.6697	28.3783	-10.4791	-10.0111	52.1257	 
  1314	-106.0858	-2.6189	27.7685	19.1706	-10.1918	52.2299	 
  1315	-106.0161	-2.7205	16.4029	 6.9872	-10.3510	52.0638	 
  1316	-106.1284	-2.7161	 1.6686	20.1120	-10.5060	51.9711	 
  1317	-106.1671	-2.7393	-20.5043	36.9957	-10.8803	51.9594	 
  1318	-106.1284	-2.7161	20.6985	-7.6433	-10.9276	51.7894	 
  1319	-106.2406	-2.7117	17.5401	14.2514	-11.1557	51.7237	 
  1320	-106.2794	-2.7349	 7.6374	48.5320	-11.4225	51.6348	 
  1321	-106.2058	-2.7625	 8.7231	 9.8230	-11.6505	51.5691	 
  1322	-105.7915	-2.7294	30.8920	-5.2225	-11.2031	51.5538	 
  1323	-105.2262	-2.6775	22.7003	-2.1977	-10.6093	51.4845	 
  1324	-104.8855	-2.6168	-114.9484	198.5642	-10.3856	51.4768	 
  1325	-104.6222	-2.6024	31.9326	-31.9952	-10.0155	51.4152	 
  1326	-104.5448	-2.5560	22.7003	-2.1977	-9.8736	51.2878	 
  1327	-104.5487	-2.6300	 9.5565	25.8956	-10.2049	51.3726	 
  1328	-104.4712	-2.5836	17.5401	14.2514	-10.2092	51.2992	 
  1329	-104.3202	-2.5649	15.0205	 0.6381	-10.1317	51.3456	 
  1330	-104.3202	-2.5649	22.7003	-2.1977	-10.3598	51.2799	 
  1331	-104.3202	-2.5649	36.5701	-13.5040	-10.1533	50.9787	 
  1332	-104.3977	-2.6113	-29.7268	50.4468	-10.4545	50.9400	 
  1333	-104.3977	-2.6113	38.3578	-25.0343	-10.5793	50.7237	 
  1334	-104.5138	-2.6808	-15.5375	45.2073	-10.9149	50.7352	 
  1335	-104.6300	-2.7504	-39.7637	80.5414	-11.2248	50.5497	 
  1336	-104.7036	-2.7228	-18.7664	58.2818	-11.4141	50.5072	 
  1337	-104.7810	-2.7692	13.3845	-4.9425	-11.6809	50.4183	 
  1338	-104.9320	-2.7879	76.0857	-15.0511	-11.9433	50.4028	 
  1339	-105.0095	-2.8343	46.5496	-28.0592	-12.1413	50.2135	 
  1340	-104.9320	-2.7879	-95.3852	146.2102	-12.2188	50.1671	 
  1341	-104.4790	-2.7316	33.5745	-18.0579	-11.7369	50.1016	 
  1342	-104.0260	-2.6753	41.7663	-21.0827	-11.1173	49.8354	 
  1343	-103.7240	-2.6378	39.6689	-8.4635	-11.1087	49.9821	 
  1344	-103.4607	-2.6234	 9.3484	17.2762	-10.8893	49.9011	 
  1345	-103.4646	-2.6974	37.9351	15.4165	-11.0011	49.9049	 
  1346	-103.5072	-2.7946	35.7521	 7.5264	-11.1216	49.7620	 
  1347	-103.4298	-2.7482	20.6985	-7.6433	-11.0872	49.7118	 
  1348	-103.3523	-2.7019	 0.3340	39.3466	-11.3841	49.7465	 
  1349	-103.2749	-2.6555	-24.0439	21.9225	-11.4702	49.5534	 
  1350	-103.3097	-2.6047	30.6781	-22.1985	-11.9478	49.6922	 
  1351	-103.0077	-2.5671	-23.8922	74.6807	-12.0510	49.8428	 
  1352	-102.6205	-2.3352	16.4029	 6.9872	-13.1050	50.9816	 
  1353	-101.9778	-2.2370	 1.6686	20.1120	-13.9609	52.3098	 
  1354	-101.8345	-2.3662	70.1449	-31.5617	-14.7006	54.3446	 
  1355	-101.8540	-2.7362	-44.7139	45.9353	-15.1778	56.3950	 
  1356	-101.6915	-3.2122	11.7055	-9.9825	-15.1860	58.7970	 
  1357	-101.5599	-3.5634	-17.7465	12.7376	-10.1688	60.2429	 
  1358	-100.6424	-3.9455	-13.1332	-6.0209	 6.2591	61.2986	 
  1359	-99.0125	-4.3311	-24.1663	-11.2802	32.2002	62.7398	 
  1360	-97.8240	-4.5509	-41.2417	-0.4770	50.8855	55.8026	 
  1361	-96.9296	-4.6603	-45.7925	-39.0913	58.8133	44.4790	 
  1362	-96.2947	-4.7100	-72.2851	-21.3247	60.6105	37.5556	 
  1363	-95.2532	-4.8746	-62.3954	-32.9606	60.7515	32.3308	 
  1364	-94.5021	-4.8547	-68.2179	-37.9325	62.6916	29.7402	 
  1365	-93.4722	-4.5246	-48.1144	-53.7896	64.8041	29.4474	 
  1366	-92.6629	-4.1115	-44.2789	-44.4856	65.2256	28.3547	 
  1367	-91.9814	-3.9901	-74.8451	-20.3795	65.8451	28.0885	 
  1368	-91.4315	-3.5174	-39.1478	-55.0765	66.5679	27.6716	 
  1369	-90.8507	-3.1696	-47.1247	-30.6154	67.2649	27.4518	 
  1370	-90.4247	-2.9145	-52.1519	-39.2170	68.1555	27.3478	 
  1371	-90.4131	-2.6925	-64.9553	-32.0153	68.4783	27.7534	 
  1372	-90.4479	-2.6417	-65.5629	-36.6263	68.5084	27.6298	 
  1373	-90.7460	-2.6052	-55.3963	-40.3804	69.0290	27.5875	 
  1374	-91.1216	-2.6151	-52.6901	-41.3797	69.7132	27.7847	 
  1375	-91.6520	-2.7178	-49.2994	-40.2703	69.8036	28.0511	 
  1376	-91.8843	-2.8570	-7.2584	-66.8519	70.0102	28.3872	 
  1377	-91.8805	-2.7830	-12.4217	-66.9694	70.3372	28.2290	 
  1378	-91.8727	-2.6350	-41.0405	-52.3160	70.5007	28.4684	 
  1379	-92.3179	-2.5433	-10.6631	-73.2788	70.5180	28.7619	 
  1380	-93.0032	-2.7387	-23.3896	-68.5795	70.6385	28.9048	 
  1381	-93.8783	-2.9762	-37.2238	-51.5888	70.3976	29.2562	 
  1382	-94.8308	-3.2599	-49.9839	-42.3790	70.3503	29.7234	 
  1383	-95.3187	-3.2655	-49.3054	-49.2641	69.8168	29.5456	 
  1384	-95.7717	-3.3218	-37.5237	-44.6185	69.0508	29.2287	 
  1385	-96.6002	-3.3880	-42.9181	-61.3684	68.2764	29.4022	 
  1386	-97.8547	-3.7093	-50.5758	-32.1149	68.5778	30.7153	 
  1387	-99.7520	-4.1289	-70.0020	-30.1518	69.3483	32.3799	 
  1388	-101.5214	-4.2570	-59.8355	-33.9059	70.1059	33.8244	 
  1389	-103.1359	-4.2922	-81.6934	-35.1681	71.4315	36.0338	 
  1390	-104.6033	-4.3827	-58.9466	-43.5675	73.8288	39.9464	 
  1391	-106.0320	-4.4500	-43.9797	-31.7767	77.5609	48.7638	 
  1392	-106.9651	-4.3638	-61.4850	-19.3904	80.7463	56.5461	 
  1393	-107.3404	-3.6570	-64.3756	-15.1744	81.3422	67.9460	 
  1394	-107.2434	-2.5239	-71.5726	15.5583	71.3790	77.6973	 
  1395	-106.7242	-1.2097	-33.6675	-15.9058	48.6956	79.5512	 
  1396	-106.9486	-0.4840	-61.3384	28.8342	24.9268	75.6586	 
  1397	-107.5602	 0.0097	-33.9838	18.7333	12.7796	71.7852	 
  1398	-107.9977	 0.2493	-23.1095	 2.8732	 8.4284	65.7828	 
  1399	-108.2067	 0.5542	-9.7576	-16.6007	 5.8414	59.9160	 
  1400	-108.3421	 0.8314	14.4184	-21.0299	 5.4623	57.2822	 
  1401	-108.4931	 0.8126	15.0205	 0.6381	 4.5585	55.8917	 
  1402	-108.6829	 0.7706	-0.9479	-5.3102	 2.9837	55.7985	 
  1403	-108.7681	 0.5763	-12.5207	25.3516	 0.9745	56.5779	 
  1404	-108.7759	 0.4283	42.7970	-31.5089	-0.9488	56.9133	 
  1405	-108.8920	 0.3587	37.9351	15.4165	-1.8092	57.5309	 
  1406	-108.9385	 0.1875	 9.1109	36.1057	-2.4804	57.5538	 
  1407	-108.9734	 0.2383	33.5745	-18.0579	-3.2849	57.8509	 
  1408	-108.7914	 0.1323	52.9732	-6.5167	-3.7582	58.0631	 
  1409	-108.4585	 0.0450	33.3715	 0.7214	-4.3219	58.0089	 
  1410	-108.0055	 0.1013	33.3715	 0.7214	-4.3907	58.1093	 
  1411	-107.5137	 0.1808	16.4888	-16.9590	-4.0120	58.1944	 
  1412	-107.2156	 0.1444	 8.7231	 9.8230	-4.1540	58.3217	 
  1413	-107.0298	 0.1123	76.0857	-15.0511	-4.2444	58.0553	 
  1414	-106.9523	 0.1587	46.5496	-28.0592	-4.5800	58.0667	 
  1415	-106.8401	 0.1543	-12.5207	25.3516	-4.7737	57.9508	 
  1416	-106.6930	 0.0991	 7.6374	48.5320	-4.9630	57.9083	 
  1417	-106.6542	 0.1223	-6.3150	31.7562	-5.0103	57.7383	 
  1418	-106.6503	 0.1963	26.3170	11.0104	-5.3847	57.7266	 
  1419	-106.5807	 0.0947	45.3469	-16.7449	-5.5095	57.5103	 
  1420	-106.6194	 0.0715	42.8066	-2.7626	-5.8795	57.5720	 
  1421	-106.7665	 0.1267	20.6985	-7.6433	-6.1162	57.3595	 
  1422	-106.6581	 0.0483	30.8920	-5.2225	-6.2367	57.2166	 
  1423	-106.7239	 0.2239	 9.3484	17.2762	-6.2927	56.8999	 
  1424	-106.6891	 0.1731	42.8066	-2.7626	-6.7144	56.7183	 
  1425	-106.7626	 0.2007	33.3715	 0.7214	-6.9381	56.7260	 
  1426	-106.0812	 0.3221	20.6985	-7.6433	-6.7962	56.5986	 
  1427	-105.5507	 0.4248	-5.6783	 8.2813	-6.6112	56.5677	 
  1428	-105.1403	 0.3839	-31.0984	32.2115	-6.6499	56.5446	 
  1429	-105.0281	 0.3795	59.9783	-27.8077	-6.5423	56.4674	 
  1430	-104.9893	 0.4027	-7.8577	42.3715	-6.7059	56.2279	 
  1431	-105.1016	 0.4071	26.3170	11.0104	-7.0028	56.2625	 
  1432	-104.9197	 0.3011	16.4029	 6.9872	-7.0028	56.2625	 
  1433	-104.9158	 0.3751	-15.5375	45.2073	-7.1620	56.0964	 
  1434	-104.9506	 0.4259	52.9732	-6.5167	-7.1663	56.0231	 
  1435	-104.9545	 0.3519	 6.5092	-2.4038	-7.1663	56.0231	 
  1436	-105.1016	 0.4071	27.7685	19.1706	-7.5363	56.0847	 
  1437	-104.9971	 0.2547	80.7977	-58.1729	-7.4030	55.8106	 
  1438	-105.1055	 0.3331	-12.5207	25.3516	-7.7085	55.6985	 
  1439	-105.2952	 0.2912	 0.3340	39.3466	-7.8247	55.6290	 
  1440	-105.3378	 0.1940	30.8920	-5.2225	-8.1345	55.4435	 
  1441	-105.1907	 0.1388	18.3334	22.6546	-8.2120	55.3971	 
  1442	-104.8926	 0.1023	16.4029	 6.9872	-7.8119	55.2119	 
  1443	-104.4048	 0.1078	 9.3484	17.2762	-7.2612	55.0460	 
  1444	-104.0640	 0.1685	 7.7064	 3.3389	-7.1106	55.0654	 
  1445	-103.7969	 0.2569	26.3170	11.0104	-7.0761	55.0152	 
  1446	-103.7659	 0.1321	45.3469	-16.7449	-7.2224	55.0692	 
  1447	-103.8434	 0.0857	-15.1153	71.4398	-7.1278	54.7719	 
  1448	-103.8085	 0.0349	42.8066	-2.7626	-7.3128	54.8027	 
  1449	-103.6575	 0.0537	30.8920	-5.2225	-7.2096	54.6522	 
  1450	-103.7389	-0.0667	37.9351	15.4165	-7.2182	54.5054	 
  1451	-103.8512	-0.0623	13.3845	-4.9425	-7.3301	54.5092	 
  1452	-103.8550	-0.1363	18.5807	-12.5213	-7.2742	54.1887	 
  1453	-104.0409	-0.1042	36.5701	-13.5040	-7.3947	54.0458	 
  1454	-104.0796	-0.1274	-27.0139	39.3994	-7.6615	53.9569	 
  1455	-104.1183	-0.1506	24.5946	 3.9623	-7.7132	53.7136	 
  1456	-104.1609	-0.2478	 9.3484	17.2762	-7.8681	53.6209	 
  1457	-104.1958	-0.1970	27.7685	19.1706	-8.0574	53.5783	 
  1458	-103.9403	-0.3307	39.6689	-8.4635	-8.0230	53.5281	 
  1459	-103.4137	-0.3020	41.7663	-21.0827	-7.3905	53.4820	 
  1460	-102.8484	-0.2501	 1.6686	20.1120	-6.8699	53.4397	 
  1461	-102.6548	-0.1341	15.0205	 0.6381	-6.6161	53.3085	 
  1462	-102.5464	-0.2125	30.8920	-5.2225	-6.4354	53.2043	 
  1463	-102.5077	-0.1894	17.5401	14.2514	-6.6247	53.1617	 
  1464	-102.4341	-0.2170	40.9164	36.2435	-6.5903	53.1115	 
  1465	-102.3219	-0.2214	-1.7978	52.0160	-6.4440	53.0575	 
  1466	-102.1786	-0.3506	-42.3801	55.1191	-6.2375	52.7564	 
  1467	-102.1051	-0.3782	-10.5746	55.2570	-6.3150	52.7100	 
  1468	-102.1748	-0.2766	24.5946	 3.9623	-6.3968	52.5903	 
  1469	-102.2522	-0.3230	 9.5565	25.8956	-6.7668	52.6520	 
  1470	-102.2948	-0.4202	55.3265	-31.3001	-6.8959	52.3623	 
  1471	-102.2948	-0.4202	69.2008	-41.2587	-6.9002	52.2889	 
  1472	-102.3335	-0.4434	45.3469	-16.7449	-7.3090	52.3274	 
  1473	-102.4497	-0.5129	45.9187	 3.7724	-7.4639	52.2347	 
  1474	-102.6007	-0.5317	69.0312	-4.7621	-7.3349	51.8872	 
  1475	-102.2678	-0.6190	41.7663	-21.0827	-7.3650	52.0107	 
  1476	-101.6676	-0.6179	49.1041	-11.9475	-6.8788	52.0186	 
  1477	-101.2882	-0.5340	42.8066	-2.7626	-6.2506	51.8991	 
  1478	-100.8778	-0.5749	-47.1450	68.7608	-5.8806	51.8374	 
  1479	-100.7616	-0.5053	69.0312	-4.7621	-5.8849	51.7641	 
  1480	-100.6920	-0.6069	115.8646	-58.4896	-5.8935	51.6173	 
  1481	-100.6959	-0.6809	15.5307	60.1235	-6.0571	51.3778	 
  1482	-100.5139	-0.7869	24.5946	 3.9623	-6.2077	51.3585	 
  1483	-100.5100	-0.7129	 1.3647	28.9204	-6.4013	51.2426	 
  1484	-100.4404	-0.8145	 1.3647	28.9204	-6.2594	51.1152	 
  1485	-100.4094	-0.9393	35.7521	 7.5264	-6.4399	51.8566	 
  1486	-100.4830	-0.9117	20.6985	-7.6433	-6.7281	52.6751	 
  1487	-100.5643	-1.0321	17.5401	14.2514	-6.5080	55.7800	 
  1488	-100.4405	-1.5313	 8.7231	 9.8230	-3.7058	62.1295	 
  1489	-98.9889	-2.4536	-6.8723	-3.1226	23.9603	61.1345	 
  1490	-97.0067	-3.2731	-11.4218	-34.7280	49.7655	48.8320	 
  1491	-95.9345	-4.2793	-27.0110	-38.0425	60.8435	40.8805	 
  1492	-94.7228	-4.7719	-19.5507	-40.7973	64.5553	33.4751	 
  1493	-92.9921	-4.6671	-7.4093	-45.2806	62.0586	27.2377	 
  1494	-91.5130	-4.3546	-48.1325	-35.6784	60.6770	24.7117	 
  1495	-90.6380	-4.1172	-40.7615	-32.9651	60.9521	23.6730	 
  1496	-90.3282	-3.9316	-49.3054	-49.2641	62.6045	24.4497	 
  1497	-90.0958	-3.7925	-43.8929	-51.2627	64.0288	25.1607	 
  1498	-90.2313	-3.5153	-24.8631	-56.1531	65.5478	25.5744	 
  1499	-90.2971	-3.3397	-47.1642	-57.9638	65.7629	25.4200	 
  1500	-90.4442	-3.2844	-42.1350	-37.8930	66.3008	25.6712	 
  1501	-90.5177	-3.2568	-19.6812	-48.7331	66.2750	25.8681	 
  1502	-90.8507	-3.1696	-79.8599	13.7831	66.5418	25.9571	 
  1503	-91.0365	-3.1375	-31.1605	-46.9682	66.8601	25.6521	 
  1504	-91.1836	-3.0823	-34.2982	-52.6691	66.9333	25.6251	 
  1505	-91.3268	-2.9531	-33.2447	-32.8545	66.6708	25.6095	 
  1506	-91.5823	-2.8194	-32.3367	-55.5299	66.5847	25.4164	 
  1507	-91.9192	-2.8062	-53.2972	-43.4420	66.4255	25.2503	 
  1508	-92.0741	-2.8989	 6.0935	-86.3258	66.7009	25.4860	 
  1509	-92.3257	-2.6913	-41.3533	-45.5659	66.6407	25.7331	 
  1510	-92.6316	-2.8028	-67.2281	-14.1211	66.7612	25.8760	 
  1511	-92.7516	-2.9464	-35.3558	-47.7805	66.9892	25.9418	 
  1512	-93.0807	-2.7851	-47.1247	-30.6154	67.1786	25.9843	 
  1513	-93.2317	-2.8039	-24.4315	-49.4529	67.3938	26.4671	 
  1514	-93.6460	-2.8370	-41.0405	-52.3160	67.5229	26.7567	 
  1515	-94.4784	-2.9772	-56.7631	-32.4915	66.5118	26.7178	 
  1516	-95.3148	-3.1915	-22.2636	-52.6149	64.6917	26.2654	 
  1517	-96.2866	-3.1285	-49.2994	-40.2703	63.8916	27.2730	 
  1518	-97.7888	-3.1682	-32.6820	-61.3998	64.1244	29.9608	 
  1519	-99.5621	-3.3702	-58.4170	-41.5515	67.4084	35.6077	 
  1520	-101.1340	-3.3083	-57.1293	-34.9051	75.9691	49.6515	 
  1521	-102.5239	-3.3524	-48.8147	-2.1786	79.1692	67.2116	 
  1522	-104.1036	-3.4385	-53.6532	 8.9414	67.9975	79.9205	 
  1523	-105.6059	-3.4782	-54.4869	14.4595	47.2504	82.2964	 
  1524	-106.5350	-3.3180	-5.9034	-22.2221	29.5312	78.3440	 
  1525	-107.0846	-2.3571	-24.1663	-11.2802	19.4748	73.1737	 
  1526	-106.9603	-0.7060	-28.3057	10.4519	13.7034	65.2593	 
  1527	-106.9407	 0.3807	-31.0984	32.2115	12.0368	57.2535	 
  1528	-107.3703	 0.7684	20.6985	-7.6433	11.8166	52.8743	 
  1529	-107.5601	 0.7264	-42.1427	36.2897	11.9840	50.6384	 
  1530	-107.4013	 0.8932	-5.6455	22.8128	10.7059	49.8734	 
  1531	-106.8708	 0.9959	25.8948	-15.2220	 8.9418	49.7377	 
  1532	-106.4914	 1.0798	25.8948	-15.2220	 6.9670	50.4669	 
  1533	-106.1546	 1.0665	 9.3484	17.2762	 5.2718	50.8679	 
  1534	-105.7829	 1.0024	45.9187	 3.7724	 3.8908	51.5278	 
  1535	-105.4073	 1.0124	36.5701	-13.5040	 3.0175	52.5625	 
  1536	-105.0666	 1.0731	 1.6686	20.1120	 2.6217	52.8211	 
  1537	-104.8847	 0.9671	48.9793	11.3384	 1.7182	53.3421	 
  1538	-104.9195	 1.0179	48.9793	11.3384	 0.8105	53.7898	 
  1539	-104.9156	 1.0919	18.3334	22.6546	-0.2522	54.1447	 
  1540	-104.8072	 1.0135	48.9793	11.3384	-1.0826	54.6387	 
  1541	-104.8072	 1.0135	-6.3150	31.7562	-1.5558	54.8509	 
  1542	-104.7724	 0.9626	41.7663	-21.0827	-2.2227	54.9473	 
  1543	-104.6949	 1.0090	59.2706	-15.7015	-2.6185	55.2059	 
  1544	-104.2419	 1.0653	18.3334	22.6546	-2.6400	55.4762	 
  1545	-103.5334	 0.9880	40.9836	50.7248	-2.2613	55.5613	 
  1546	-103.1888	 1.1227	59.2706	-15.7015	-1.8052	55.6927	 
  1547	-103.0726	 1.1923	48.9793	11.3384	-2.0203	55.8471	 
  1548	-103.0765	 1.1183	37.9351	15.4165	-2.1709	55.8278	 
  1549	-102.9681	 1.0399	-23.8922	74.6807	-2.1752	55.7544	 
  1550	-102.8520	 1.1095	 9.1109	36.1057	-2.2570	55.6346	 
  1551	-102.7784	 1.0818	17.8040	44.7780	-2.1925	55.4609	 
  1552	-102.8907	 1.0863	88.0611	-32.5174	-2.1710	55.1906	 
  1553	-102.8559	 1.0355	17.5401	14.2514	-2.3561	55.2214	 
  1554	-102.7823	 1.0078	59.2706	-15.7015	-2.4034	55.0515	 
  1555	-102.8636	 0.8875	56.9629	-0.3058	-2.5239	54.9086	 
  1556	-103.0843	 0.9703	64.7616	-34.7841	-2.7563	54.7695	 
  1557	-103.0843	 0.9703	49.1041	-11.9475	-3.0188	54.7539	 
  1558	-102.9759	 0.8919	54.7821	-20.2289	-3.2511	54.6148	 
  1559	-103.1656	 0.8499	-1.6754	85.2187	-3.5954	54.4796	 
  1560	-103.2005	 0.9007	45.9187	 3.7724	-3.3502	54.2016	 
  1561	-102.5655	 0.8510	-1.7978	52.0160	-2.9070	54.1129	 
  1562	-101.8919	 0.8245	74.4323	 1.9397	-2.0981	53.8892	 
  1563	-101.6595	 0.9636	48.9793	11.3384	-1.7324	53.7542	 
  1564	-101.4001	 0.9040	42.8066	-2.7626	-1.4356	53.7195	 
  1565	-101.3614	 0.9272	 4.4864	64.2017	-1.5044	53.8199	 
  1566	-101.3614	 0.9272	69.0312	-4.7621	-1.2592	53.5419	 
  1567	-101.3653	 0.8532	18.3334	22.6546	-1.4141	53.4492	 
  1568	-101.2143	 0.8719	18.3334	22.6546	-1.4098	53.5226	 
  1569	-101.0246	 0.9139	36.5701	-13.5040	-1.2420	53.1983	 
  1570	-101.0981	 0.9415	 9.5565	25.8956	-1.3195	53.1519	 
  1571	-101.0981	 0.9415	39.7569	24.7894	-1.5519	53.0128	 
  1572	-101.1756	 0.8951	64.9486	-23.9830	-1.4573	52.7155	 
  1573	-101.1795	 0.8211	33.3715	 0.7214	-1.6853	52.6498	 
  1574	-101.3692	 0.7792	45.9187	 3.7724	-1.6682	52.3061	 
  1575	-101.5589	 0.7372	 8.7231	 9.8230	-2.0081	52.2442	 
  1576	-101.5628	 0.6632	 7.6374	48.5320	-2.2318	52.2518	 
  1577	-101.3808	 0.5572	86.2636	19.4987	-1.9565	51.8503	 
  1578	-101.0401	 0.6179	18.5461	32.6217	-1.6597	51.8156	 
  1579	-100.5871	 0.6742	15.5307	60.1235	-1.0315	51.6961	 
  1580	-100.2116	 0.6841	64.0174	-10.5949	-0.5840	51.6808	 
  1581	-100.0993	 0.6797	54.7821	-20.2289	-0.5840	51.6808	 
  1582	-100.2154	 0.6101	45.9187	 3.7724	-0.7045	51.5379	 
  1583	-100.1806	 0.5593	141.0346	-39.0340	-0.7175	51.3178	 
  1584	-100.0683	 0.5549	97.4098	-15.2411	-0.6142	51.1672	 
  1585	-100.0683	 0.5549	70.3149	-19.7797	-0.6142	51.1672	 
  1586	-99.9987	 0.4533	27.7685	19.1706	-0.5884	50.9703	 
  1587	-99.9987	 0.4533	39.6689	-8.4635	-0.5540	50.9201	 
  1588	-99.9987	 0.4533	10.3928	80.7625	-0.7563	50.6574	 
  1589	-100.1845	 0.4853	64.7616	-34.7841	-0.9112	50.5647	 
  1590	-100.1923	 0.3374	55.7400	64.0177	-1.0317	50.4218	 
  1591	-100.3084	 0.2678	75.9929	-28.0611	-1.0834	50.1785	 
  1592	-100.4246	 0.1982	18.5461	32.6217	-1.2641	50.2827	 
  1593	-100.5408	 0.1286	28.7126	28.8676	-1.2770	50.0626	 
  1594	-100.2775	 0.1430	15.0205	 0.6381	-1.2426	50.0124	 
  1595	-99.6038	 0.1164	59.2706	-15.7015	-0.4639	49.9122	 
  1596	-99.1857	 0.2236	37.9351	15.4165	 0.3536	49.8353	 
  1597	-98.9263	 0.1639	56.9629	-0.3058	 0.7581	49.7234	 
  1598	-98.8914	 0.1131	82.4159	-9.7045	 1.5368	49.6233	 
  1599	-98.8527	 0.1363	48.9793	11.3384	 2.4834	49.1988	 
  1600	-98.7095	 0.0071	 9.1109	36.1057	 3.3094	48.6314	 
  1601	-98.7482	-0.0161	59.2706	-15.7015	 3.7008	48.2994	 
  1602	-98.6320	 0.0535	70.1449	-31.5617	 4.1267	47.9172	 
  1603	-98.5972	 0.0026	26.3170	11.0104	 4.2773	47.9366	 
  1604	-98.6398	-0.0945	80.2037	 9.8541	 4.6905	48.6087	 
  1605	-98.7947	-0.1873	26.3170	11.0104	 5.2888	49.8871	 
  1606	-98.6050	-0.1453	36.5701	-13.5040	 5.2335	53.3935	 
  1607	-98.3495	-0.2790	46.5496	-28.0592	 3.3457	58.7760	 
  1608	-98.0554	-1.1062	24.5946	 3.9623	 4.1422	61.5181	 
  1609	-97.8349	-1.9058	-60.4625	88.1846	10.3600	63.6826	 
  1610	-97.3860	-2.6403	74.9282	-38.5382	22.6189	66.9150	 
  1611	-96.8518	-3.1803	-10.8770	-20.3856	35.6474	66.7146	 
  1612	-95.1406	-3.4455	-22.0345	-23.9497	50.0558	59.4825	 
  1613	-92.8680	-3.7327	-37.9060	-18.0890	60.4625	51.5541	 
  1614	-91.5556	-4.4518	-10.6113	-49.5334	71.4677	45.5412	 
  1615	-89.7940	-4.4717	-24.9878	-32.8672	75.8035	38.5800	 
  1616	-87.8541	-3.9549	-8.5312	-38.9440	72.0331	31.6510	 
  1617	-86.3517	-3.1985	-11.5119	-56.5851	68.9602	27.6879	 
  1618	-84.7254	-2.2244	10.4506	-71.3295	68.8740	26.8576	 
  1619	-82.4330	-0.7082	-9.9497	-54.8005	68.9557	26.3401	 
  1620	-81.8017	-0.1151	-47.1247	-30.6154	70.0055	26.4023	 
  1621	-81.9372	 0.1621	-13.6799	-53.4231	70.0055	26.4023	 
  1622	-82.0494	 0.1665	-6.5886	-51.0188	70.0183	25.9852	 
  1623	-82.1578	 0.2449	-23.9288	-30.1097	70.4357	26.0935	 
  1624	-82.4986	 0.1842	-17.0042	-44.5114	70.3195	26.0239	 
  1625	-82.7657	 0.0959	-7.7817	-57.9625	70.4658	25.9699	 
  1626	-83.2149	 0.1135	-22.0213	-45.3202	71.0812	26.2675	 
  1627	-83.7144	-0.1139	-8.9117	-72.0888	71.6535	26.4685	 
  1628	-84.2448	-0.2166	-19.6812	-48.7331	72.0364	26.6269	 
  1629	-84.9340	-0.4861	-32.4804	-41.4580	72.4668	26.9553	 
  1630	-85.2942	-0.9168	-19.5507	-40.7973	73.0950	27.4730	 
  1631	-86.3668	-1.3442	-31.1605	-46.9682	73.3189	28.1025	 
  1632	-87.7026	-1.7859	-7.7817	-57.9625	74.0462	29.0334	 
  1633	-89.6812	-2.3258	-55.4525	-18.4693	74.7048	30.7019	 
  1634	-91.7333	-2.8382	-17.4100	-52.0457	75.9618	33.6487	 
  1635	-93.8125	-3.1518	-73.1433	-8.6008	78.3078	39.2296	 
  1636	-95.6323	-3.5250	-30.5949	-36.7192	80.7785	44.3896	 
  1637	-97.6650	-3.6674	-58.6976	-23.4558	84.7429	53.3461	 
  1638	-99.7596	-3.5601	-19.9061	-31.5951	85.6538	69.4650	 
  1639	-101.3780	-3.6694	-37.1122	-6.4998	72.0592	79.7326	 
  1640	-103.2247	-3.1271	-54.4869	14.4595	45.6839	80.4384	 
  1641	-104.5717	-1.6405	-4.5646	-18.5183	23.9965	70.6420	 
  1642	-105.4155	-0.5691	14.4184	-21.0299	19.3689	58.6693	 
  1643	-106.5382	-0.5249	-6.1441	 2.2686	18.6485	48.9647	 
  1644	-107.1926	-0.8452	-6.3150	31.7562	18.1569	43.1488	 
  1645	-107.6418	-0.8275	 6.5092	-2.4038	16.6633	39.9895	 
  1646	-107.3010	-0.7668	 0.8312	 5.8776	15.7939	38.5488	 
  1647	-106.4995	-0.5017	13.3845	-4.9425	15.4754	38.2166	 
  1648	-105.4773	-0.3195	55.3265	-31.3001	15.6089	38.5796	 
  1649	-104.6797	-0.1285	20.9279	-23.4336	14.9893	38.8459	 
  1650	-104.3003	-0.0446	64.0174	-10.5949	14.3053	39.2859	 
  1651	-104.1841	 0.0250	28.7126	28.8676	13.7589	39.5251	 
  1652	-103.9286	-0.1087	18.3334	22.6546	13.1307	39.6446	 
  1653	-103.8899	-0.0855	18.3334	22.6546	12.9500	39.7488	 
  1654	-103.9247	-0.0347	52.9732	-6.5167	12.1756	39.9224	 
  1655	-103.8512	-0.0623	28.8482	40.6998	11.5732	39.8449	 
  1656	-103.7776	-0.0899	16.4029	 6.9872	11.1429	39.5165	 
  1657	-103.5956	-0.1959	28.3783	-10.4791	10.2479	39.5471	 
  1658	-103.7001	-0.0435	16.4029	 6.9872	 9.7187	39.4427	 
  1659	-103.7737	-0.0159	28.3783	-10.4791	 8.9572	39.8363	 
  1660	-103.7040	-0.1175	54.3012	31.3011	 8.5527	39.9482	 
  1661	-103.7118	-0.2655	42.7970	-31.5089	 8.0838	40.2338	 
  1662	-103.6034	-0.3439	36.5701	-13.5040	 7.8300	40.3650	 
  1663	-103.1891	-0.3108	27.7685	19.1706	 7.9548	40.5813	 
  1664	-102.6665	-0.3561	15.0205	 0.6381	 8.1871	40.7204	 
  1665	-102.4032	-0.3418	-6.3150	31.7562	 8.2001	40.9405	 
  1666	-102.2909	-0.3462	 1.3647	28.9204	 8.0237	41.1181	 
  1667	-102.2213	-0.4478	80.2037	 9.8541	 7.5204	41.4539	 
  1668	-102.2639	-0.5450	 9.1109	36.1057	 7.1331	41.2221	 
  1669	-102.2290	-0.5958	70.1449	-31.5617	 6.5092	41.4150	 
  1670	-102.0045	-0.6046	48.9793	11.3384	 6.3199	41.3724	 
  1671	-102.1555	-0.6234	110.7617	-34.7150	 5.9843	41.3839	 
  1672	-102.1981	-0.7206	 9.5565	25.8956	 5.8294	41.2912	 
  1673	-102.3491	-0.7394	42.8066	-2.7626	 5.3088	41.3335	 
  1674	-102.3530	-0.8134	-1.6754	85.2187	 5.1237	41.3643	 
  1675	-102.5001	-0.7581	37.9351	15.4165	 4.7838	41.3024	 
  1676	-102.5466	-0.9293	18.3334	22.6546	 4.5084	41.0668	 
  1677	-102.7673	-0.8465	17.5401	14.2514	 3.9878	41.1091	 
  1678	-102.7711	-0.9205	 1.3647	28.9204	 3.7210	41.0202	 
  1679	-102.7324	-0.8973	17.8040	44.7780	 3.5274	40.9043	 
  1680	-102.2059	-0.8686	49.1041	-11.9475	 3.7941	40.9932	 
  1681	-101.6058	-0.8675	40.9164	36.2435	 4.1642	40.9315	 
  1682	-101.4509	-0.7747	-32.0839	77.7056	 4.2416	40.9779	 
  1683	-101.3386	-0.7792	61.0475	 6.8821	 4.4654	40.9702	 
  1684	-101.2302	-0.8576	 1.6686	20.1120	 4.4223	40.8737	 
  1685	-101.1915	-0.8344	20.6985	-7.6433	 4.2330	40.8311	 
  1686	-101.2302	-0.8576	59.2706	-15.7015	 4.3362	40.6805	 
  1687	-101.3386	-0.7792	27.7685	19.1706	 4.0393	40.7152	 
  1688	-101.2341	-0.9316	 8.7231	 9.8230	 3.8801	40.5491	 
  1689	-101.0870	-0.9868	35.7521	 7.5264	 3.6951	40.5799	 
  1690	-101.1296	-1.0840	88.0611	-32.5174	 3.5660	40.2903	 
  1691	-101.4586	-0.9227	45.9187	 3.7724	 3.0066	40.3094	 
  1692	-101.3929	-1.0983	54.7821	-20.2289	 2.6581	40.1007	 
  1693	-101.5051	-1.0939	33.3715	 0.7214	 2.0944	40.0465	 
  1694	-101.5090	-1.1679	18.5461	32.6217	 1.7459	39.8379	 
  1695	-101.7336	-1.1591	73.3303	-47.2816	 1.2080	39.5867	 
  1696	-101.7336	-1.1591	-6.3150	31.7562	 0.5668	39.4861	 
  1697	-101.3968	-1.1723	 1.3647	28.9204	 0.1581	39.5245	 
  1698	-100.8315	-1.1204	30.8920	-5.2225	 0.2872	39.8142	 
  1699	-100.3359	-0.9670	121.6359	-50.5752	 0.3003	40.6715	 
  1700	-99.8867	-0.9846	82.3831	-24.2360	 0.1844	41.8763	 
  1701	-99.7357	-0.9659	49.1041	-11.9475	-0.1726	42.7953	 
  1702	-99.8480	-0.9615	45.9187	 3.7724	-0.9598	44.0230	 
  1703	-99.7048	-1.0907	27.5989	55.6672	-1.4244	44.3820	 
  1704	-99.5886	-1.0211	38.7714	70.2835	-1.7944	44.4437	 
  1705	-99.5538	-1.0719	-22.8862	93.0510	-1.8675	44.4707	 
  1706	-99.6312	-1.1183	-13.6291	34.4570	-2.1988	44.5555	 
  1707	-99.5964	-1.1691	104.4642	-25.5301	-2.4183	44.6365	 
  1708	-99.7396	-1.0399	74.4323	 1.9397	-2.6678	44.8411	 
  1709	-99.6739	-1.2155	82.3831	-24.2360	-3.0292	45.0495	 
  1710	-99.7552	-1.3359	-15.1153	71.4398	-3.1109	44.9298	 
  1711	-99.8326	-1.3822	 9.3484	17.2762	-3.4465	44.9413	 
  1712	-100.0185	-1.3502	70.3149	-19.7797	-3.5283	44.8215	 
  1713	-100.1734	-1.4430	52.9732	-6.5167	-3.8338	44.7095	 
  1714	-99.8791	-1.5534	28.3783	-10.4791	-3.9027	44.8098	 
  1715	-99.4222	-1.4231	48.9793	11.3384	-3.5971	44.9219	 
  1716	-98.9692	-1.3668	70.3149	-19.7797	-2.9431	45.2427	 
  1717	-98.5976	-1.4309	45.3469	-16.7449	-2.7666	45.7023	 
  1718	-98.4466	-1.4121	82.4159	-9.7045	-2.7277	46.3626	 
  1719	-98.2685	-1.5921	49.1041	-11.9475	-2.8781	47.6176	 
  1720	-98.4504	-1.4861	64.7616	-34.7841	-3.7597	49.7799	 
  1721	-98.2027	-1.7677	64.9486	-23.9830	-4.5683	51.9151	 
  1722	-98.2027	-1.7677	45.3469	-16.7449	-5.0712	54.1624	 
  1723	-98.0556	-1.8230	18.5461	32.6217	-4.7996	57.5106	 
  1724	-97.7962	-1.8826	79.3673	-45.0128	-4.0071	61.4536	 
  1725	-97.1033	-2.2559	-25.1740	30.0239	 5.1798	65.1831	 
  1726	-95.7639	-3.1738	 0.8312	 5.8776	26.9987	65.1478	 
  1727	-93.8940	-3.9889	-28.3057	10.4519	45.2531	54.6964	 
  1728	-92.5856	-4.7819	-57.3833	10.3188	54.5366	45.4584	 
  1729	-92.4038	-5.6047	-16.6988	-22.1716	65.2885	42.7626	 
  1730	-91.7496	-6.0012	-15.7371	-33.1345	70.9715	38.3776	 
  1731	-90.4215	-5.7075	-13.0546	-45.9698	70.7212	34.1220	 
  1732	-88.5513	-5.0891	-19.6812	-48.7331	69.1329	30.6228	 
  1733	-86.9754	-4.3603	-38.9227	-24.5731	68.5259	29.1976	 
  1734	-85.7131	-3.8910	-34.9237	-37.8945	68.9260	29.0124	 
  1735	-84.6985	-3.1400	-19.5507	-40.7973	69.7307	29.3525	 
  1736	-84.2261	-2.7137	-9.0319	-47.4553	71.3829	29.4921	 
  1737	-84.0169	-2.3018	-18.8260	-53.8843	73.3711	30.8945	 
  1738	-83.8503	-1.9870	19.2275	-74.5704	73.7627	31.1997	 
  1739	-83.8038	-1.8158	-11.5119	-56.5851	73.9906	30.6283	 
  1740	-83.7573	-1.6447	-30.1404	-44.8710	73.6678	30.2227	 
  1741	-83.9005	-1.5154	-10.8423	-65.5285	73.3191	29.3769	 
  1742	-84.2761	-1.5254	-39.4697	-27.5197	72.4154	28.6235	 
  1743	-84.7717	-1.6789	-19.6812	-48.7331	71.4687	27.7737	 
  1744	-85.4183	-1.8511	-34.6713	-22.8069	70.9308	27.5225	 
  1745	-85.8326	-1.8842	-7.7817	-57.9625	70.6554	27.2868	 
  1746	-86.4444	-2.1073	-26.1198	-57.8256	70.8276	27.6730	 
  1747	-87.1607	-2.1779	-22.2004	-36.9327	70.7286	27.8970	 
  1748	-87.8848	-2.3966	-48.1325	-35.6784	71.1762	28.5189	 
  1749	-88.2564	-2.3325	-30.4440	-58.2904	71.8863	29.1563	 
  1750	-88.4152	-2.4993	-36.6320	-61.8529	72.5663	29.9172	 
  1751	-89.4761	-2.7047	-42.1798	-47.5472	72.8418	30.7901	 
  1752	-90.4169	-2.7665	-45.2069	-36.7587	73.7069	32.1574	 
  1753	-91.4352	-2.8747	-28.9925	-50.1302	74.6753	34.0113	 
  1754	-92.6859	-3.1220	-12.3893	-77.8516	77.3696	37.8893	 
  1755	-94.7573	-3.2876	-56.7631	-32.4915	84.3506	49.2179	 
  1756	-96.9178	-3.7215	-53.1223	-28.4008	88.9137	61.3643	 
  1757	-99.0124	-3.6143	-27.8784	-28.6512	85.9043	74.3579	 
  1758	-101.1418	-3.4563	-32.9432	-8.0393	69.5774	84.5473	 
  1759	-103.1821	-3.0299	-44.9605	-7.7999	47.1867	86.9304	 
  1760	-104.6491	-1.6868	-24.1663	-11.2802	29.4457	81.3367	 
  1761	-105.3999	-0.2732	-9.7576	-16.6007	24.7408	70.5920	 
  1762	-106.1586	 0.2758	 9.5788	-39.1466	21.7222	57.3880	 
  1763	-106.8671	 0.3531	 5.1959	-7.5788	20.2620	49.0810	 
  1764	-107.0181	 0.3343	-28.0831	 4.7097	18.7725	44.7207	 
  1765	-106.6735	 0.4691	 0.8312	 5.8776	17.6489	41.4997	 
  1766	-106.1547	 0.3498	50.9888	-34.5338	15.8889	40.1630	 
  1767	-105.4384	 0.4204	-12.5207	25.3516	14.7184	39.3208	 
  1768	-104.8770	 0.3983	58.9724	-46.1780	13.7674	39.0347	 
  1769	-104.7609	 0.4679	70.1449	-31.5617	12.9413	38.9649	 
  1770	-104.3892	 0.4038	33.3715	 0.7214	12.2056	39.1616	 
  1771	-103.9362	 0.4601	27.5989	55.6672	11.8399	39.2967	 
  1772	-103.7387	 0.6501	104.4642	-25.5301	11.2547	39.5127	 
  1773	-103.6613	 0.6964	70.3149	-19.7797	11.0955	39.3466	 
  1774	-103.6225	 0.7196	45.3469	-16.7449	10.7943	39.3079	 
  1775	-103.5877	 0.6688	18.5461	32.6217	10.1748	39.5742	 
  1776	-103.6651	 0.6224	18.3334	22.6546	 9.9251	39.1416	 
  1777	-103.7465	 0.5021	16.4029	 6.9872	 9.2883	39.1143	 
  1778	-103.7504	 0.4281	35.7521	 7.5264	 8.8365	39.0563	 
  1779	-103.8200	 0.5297	55.3265	-31.3001	 8.4192	38.9480	 
  1780	-103.8975	 0.4833	-26.4462	61.1177	 8.1911	38.8823	 
  1781	-103.7078	 0.5253	-1.7978	52.0160	 7.8512	38.8204	 
  1782	-103.0341	 0.4987	88.0611	-32.5174	 8.1524	38.8591	 
  1783	-102.4997	 0.6754	52.9732	-6.5167	 8.6042	38.9172	 
  1784	-102.0894	 0.6345	33.3715	 0.7214	 8.4579	38.9712	 
  1785	-101.9074	 0.5285	 8.7231	 9.8230	 8.4880	38.8476	 
  1786	-101.8687	 0.5517	-32.3214	96.5350	 8.2298	38.9054	 
  1787	-101.9384	 0.6533	69.0312	-4.7621	 8.0749	38.8127	 
  1788	-101.7564	 0.5473	30.8920	-5.2225	 7.9200	38.7200	 
  1789	-101.6829	 0.5196	70.1449	-31.5617	 7.2918	38.8395	 
  1790	-101.6829	 0.5196	 9.5565	25.8956	 6.9562	38.8510	 
  1791	-101.6132	 0.4180	49.1041	-11.9475	 6.7195	38.6385	 
  1792	-101.7990	 0.4501	82.4159	-9.7045	 6.2376	38.7040	 
  1793	-101.8765	 0.4037	90.9642	-61.9270	 5.7041	38.5262	 
  1794	-101.8804	 0.3297	17.5401	14.2514	 5.2953	38.5647	 
  1795	-101.9539	 0.3573	17.5401	14.2514	 4.9511	38.4294	 
  1796	-102.1785	 0.3662	95.7678	-29.1784	 4.3874	38.3751	 
  1797	-102.0352	 0.2369	49.1041	-11.9475	 3.7894	38.3711	 
  1798	-101.9926	 0.3341	28.7126	28.8676	 3.1569	38.4172	 
  1799	-101.6132	 0.4180	-33.7602	63.8184	 3.1612	38.4906	 
  1800	-100.9743	 0.4423	 0.8312	 5.8776	 3.7205	38.4715	 
  1801	-100.5910	 0.6002	36.5701	-13.5040	 3.7722	38.7148	 
  1802	-100.3664	 0.5914	70.3149	-19.7797	 3.8023	38.5912	 
  1803	-100.2968	 0.4898	-26.4462	61.1177	 3.6517	38.5718	 
  1804	-100.3703	 0.5174	15.0205	 0.6381	 3.4710	38.6761	 
  1805	-100.2581	 0.5130	76.0857	-15.0511	 3.5054	38.6259	 
  1806	-100.1845	 0.4853	48.9793	11.3384	 3.3548	38.6065	 
  1807	-100.1497	 0.4345	17.5401	14.2514	 3.2386	38.5370	 
  1808	-100.2232	 0.4622	24.5946	 3.9623	 3.0924	38.5910	 
  1809	-100.1536	 0.3605	26.3170	11.0104	 2.8686	38.5986	 
  1810	-100.3820	 0.2954	28.3783	-10.4791	 2.6105	38.6565	 
  1811	-100.5330	 0.2766	49.1041	-11.9475	 2.1673	38.7451	 
  1812	-100.6105	 0.2302	39.6689	-8.4635	 2.0081	38.5790	 
  1813	-100.6879	 0.1839	 1.3647	28.9204	 2.0081	38.5790	 
  1814	-100.8041	 0.1143	70.1449	-31.5617	 1.9349	38.6060	 
  1815	-100.8467	 0.0171	59.2706	-15.7015	 1.7242	38.8338	 
  1816	-100.5834	 0.0314	49.1041	-11.9475	 1.7801	39.1505	 
  1817	-99.8710	 0.0281	59.9783	-27.8077	 2.3438	39.2047	 
  1818	-99.4916	 0.1120	75.9929	-28.0611	 2.7526	39.1662	 
  1819	-99.3754	 0.1816	56.9629	-0.3058	 2.7138	39.1431	 
  1820	-99.3715	 0.2556	18.3334	22.6546	 2.6450	39.2434	 
  1821	-99.2322	 0.0524	42.8066	-2.7626	 2.5288	39.1739	 
  1822	-99.1973	 0.0016	75.9929	-28.0611	 2.4815	39.0040	 
  1823	-99.0851	-0.0029	54.7821	-20.2289	 2.4427	38.9808	 
  1824	-99.0424	 0.0943	64.7616	-34.7841	 2.4126	39.1044	 
  1825	-99.0076	 0.0435	39.2467	-34.6959	 2.1502	39.0888	 
  1826	-99.0154	-0.1045	27.7685	19.1706	 1.9652	39.1197	 
  1827	-99.0889	-0.0768	64.9486	-23.9830	 1.8490	39.0501	 
  1828	-99.0928	-0.1508	36.5701	-13.5040	 1.7414	39.1273	 
  1829	-99.2129	-0.2944	33.3715	 0.7214	 1.7328	38.9806	 
  1830	-99.4374	-0.2856	49.1041	-11.9475	 1.3972	38.9920	 
  1831	-99.4762	-0.3088	-32.3214	96.5350	 1.2810	38.9225	 
  1832	-99.3639	-0.3132	54.7821	-20.2289	 1.0272	39.0537	 
  1833	-98.8025	-0.3353	93.2573	-40.0962	 1.6209	38.9844	 
  1834	-98.2024	-0.3342	24.5946	 3.9623	 2.1114	39.0656	 
  1835	-97.7494	-0.2779	-7.8577	42.3715	 2.4126	39.1044	 
  1836	-97.5674	-0.3839	 0.3340	39.3466	 2.4901	39.1507	 
  1837	-97.6100	-0.4811	49.1041	-11.9475	 2.5202	39.0272	 
  1838	-97.8307	-0.3983	42.8066	-2.7626	 2.4083	39.0310	 
  1839	-97.6449	-0.4303	56.9629	-0.3058	 2.4514	39.1275	 
  1840	-97.6488	-0.5043	45.3469	-16.7449	 2.3782	39.1545	 
  1841	-97.6527	-0.5783	18.3334	22.6546	 2.4815	39.0040	 
  1842	-97.6565	-0.6523	 1.3647	28.9204	 2.3696	39.0078	 
  1843	-97.8424	-0.6203	17.5401	14.2514	 2.1071	38.9923	 
  1844	-97.9276	-0.8146	22.7003	-2.1977	 2.0210	38.7992	 
  1845	-98.0438	-0.8842	-7.8577	42.3715	 1.6467	38.7874	 
  1846	-98.1948	-0.9030	37.9351	15.4165	 1.2810	38.9225	 
  1847	-98.3109	-0.9726	 1.4090	12.5238	 1.0142	38.8336	 
  1848	-98.4619	-0.9913	26.3170	11.0104	 0.8206	38.7177	 
  1849	-98.0903	-1.0554	18.3334	22.6546	 0.9668	38.6636	 
  1850	-97.3004	-1.0124	17.5401	14.2514	 1.4961	38.7681	 
  1851	-96.8474	-0.9561	45.9187	 3.7724	 2.0554	38.7490	 
  1852	-96.6925	-0.8633	17.8040	44.7780	 2.2878	38.8881	 
  1853	-96.5842	-0.9417	30.8920	-5.2225	 2.4255	38.6873	 
  1854	-96.5145	-1.0433	59.2706	-15.7015	 2.2792	38.7413	 
  1855	-96.5184	-1.1173	 9.1109	36.1057	 2.0554	38.7490	 
  1856	-96.4835	-1.1681	70.3149	-19.7797	 2.1243	38.6486	 
  1857	-96.3713	-1.1725	121.6359	-50.5752	 2.1931	38.5482	 
  1858	-96.4487	-1.2189	24.5946	 3.9623	 2.0769	38.4786	 
  1859	-96.5997	-1.2377	64.0174	-10.5949	 1.8532	38.4863	 
  1860	-96.7546	-1.3305	64.0174	-10.5949	 1.6208	38.3472	 
  1861	-96.8359	-1.4508	 6.5092	-2.4038	 1.6596	39.0076	 
  1862	-97.0025	-1.7656	16.4888	-16.9590	 0.0780	48.3253	 
  1863	-95.4502	-2.9142	11.7055	-9.9825	25.4708	62.6758	 
  1864	-92.7713	-4.0331	-41.2304	-9.1773	61.2704	46.2330	 
  1865	-90.7504	-4.8295	-32.9432	-8.0393	64.1251	33.7839	 
  1866	-89.5194	-5.6689	-34.0325	-35.4498	63.1087	28.5741	 
  1867	-87.8082	-5.9340	-46.1986	-25.0350	61.4687	24.8316	 
  1868	-86.2324	-5.9220	-37.2895	-57.7868	59.3384	22.2822	 
  1869	-85.0553	-5.6470	-38.2150	-36.6792	60.2591	22.0547	 
  1870	-84.3312	-5.4284	-17.3956	-67.0444	61.2746	22.1670	 
  1871	-83.9711	-4.9977	-13.6799	-53.4231	61.9975	22.3874	 
  1872	-83.1192	-4.4875	-45.2069	-36.7587	63.0172	22.5731	 
  1873	-82.7319	-4.2555	-52.8464	-25.6164	64.7083	23.3730	 
  1874	-82.4492	-3.8712	-54.4231	-35.9044	67.0966	24.5902	 
  1875	-82.1665	-3.4869	-7.3824	-62.6079	68.3917	25.0115	 
  1876	-81.9225	-3.1258	-37.5237	-44.6185	69.4158	25.2706	 
  1877	-81.7598	-2.8850	-23.6021	-54.4072	69.8676	25.3287	 
  1878	-81.4849	-2.6487	-40.5956	-43.4842	69.7299	24.8923	 
  1879	-81.6281	-2.5194	-6.0001	-56.2589	69.5276	24.6296	 
  1880	-82.1198	-2.5989	-43.4112	-29.1004	69.6481	24.7725	 
  1881	-82.6851	-2.6508	-46.1986	-25.0350	69.6137	24.8227	 
  1882	-83.0336	-2.8595	-49.7745	-26.7507	69.7857	24.5718	 
  1883	-83.5253	-2.9390	-30.1404	-44.8710	69.4674	24.8767	 
  1884	-83.7616	-3.1522	-50.5758	-32.1149	70.1344	25.4176	 
  1885	-84.2611	-3.3797	-9.0457	-75.6378	70.4529	25.7498	 
  1886	-85.2058	-3.5155	-64.5127	-11.7877	70.7155	26.4025	 
  1887	-85.6588	-3.5718	-40.7615	-32.9651	71.1502	27.4414	 
  1888	-86.4874	-3.6380	-55.4525	-18.4693	71.9593	28.4921	 
  1889	-88.0129	-4.1217	-30.1116	-52.0035	71.6411	29.4342	 
  1890	-90.3128	-4.3524	-48.6577	-14.1188	73.9221	32.6402	 
  1891	-92.5391	-4.6107	-59.5664	 1.7915	78.0322	38.3568	 
  1892	-94.9744	-4.5643	-38.9227	-24.5731	86.3559	50.2766	 
  1893	-96.9528	-4.3875	-10.6113	-49.5334	91.0619	67.3931	 
  1894	-99.3068	-4.2206	-35.3388	-25.8964	82.0460	81.1802	 
  1895	-101.3702	-3.5214	-41.5118	 4.4581	63.7778	86.3141	 
  1896	-102.5431	-2.2888	-21.1604	-20.5241	43.5896	86.7593	 
  1897	-103.5534	-1.5323	-37.0726	-2.0164	27.4668	83.2669	 
  1898	-104.2037	-1.0618	-28.3057	10.4519	20.1169	78.3718	 
  1899	-104.2966	-0.6874	12.4041	-24.7841	17.0907	70.7556	 
  1900	-104.2074	-0.4190	-23.3784	14.8172	15.9016	62.6109	 
  1901	-103.7467	-0.2147	-42.3801	55.1191	15.1690	56.5092	 
  1902	-103.1000	-0.0424	 3.8354	-12.2867	14.6479	54.0028	 
  1903	-102.6393	 0.1619	27.7685	19.1706	13.2923	52.5543	 
  1904	-102.4108	 0.2270	24.5946	 3.9623	11.9886	52.6233	 
  1905	-102.3721	 0.2502	 1.4090	12.5238	10.8527	52.3681	 
  1906	-102.1436	 0.3153	 0.8312	 5.8776	 9.8801	51.7152	 
  1907	-102.0352	 0.2369	39.6689	-8.4635	 9.6606	51.1590	 
  1908	-101.9617	 0.2093	18.5807	-12.5213	 9.1656	50.3672	 
  1909	-102.0352	 0.2369	38.3578	-25.0343	 8.9633	49.4674	 
  1910	-102.0352	 0.2369	46.5496	-28.0592	 8.2231	48.9535	 
  1911	-102.1088	 0.2645	-13.6291	34.4570	 7.7024	48.3587	 
  1912	-102.2211	 0.2690	37.9351	15.4165	 7.2763	48.1036	 
  1913	-102.2946	 0.2966	20.6985	-7.6433	 6.5879	47.8331	 
  1914	-102.1088	 0.2645	58.9724	-46.1780	 5.9467	47.7325	 
  1915	-101.4739	 0.2148	49.1041	-11.9475	 5.9080	47.7093	 
  1916	-100.8698	 0.2899	 7.6374	48.5320	 6.4286	47.6670	 
  1917	-100.4865	 0.4478	24.5946	 3.9623	 6.5835	47.7597	 
  1918	-100.2968	 0.4898	46.5496	-28.0592	 6.5405	47.6632	 
  1919	-100.1884	 0.4113	33.3715	 0.7214	 6.4200	47.5202	 
  1920	-100.1497	 0.4345	89.4261	-3.5969	 5.7230	47.7401	 
  1921	-100.0683	 0.5549	-97.9798	192.2984	 5.5250	47.5508	 
  1922	-100.0296	 0.5781	 9.1109	36.1057	 5.7101	47.5200	 
  1923	-99.9987	 0.4533	 9.3484	17.2762	 5.4519	47.5779	 
  1924	-100.0026	 0.3793	-1.7978	52.0160	 5.2496	47.3152	 
  1925	-100.1109	 0.4577	45.3469	-16.7449	 5.1291	47.1723	 
  1926	-100.1884	 0.4113	82.3831	-24.2360	 5.0430	46.9792	 
  1927	-100.3394	 0.3926	-36.9458	124.6310	 4.7332	46.7937	 
  1928	-100.3123	 0.1938	49.1041	-11.9475	 4.5697	46.5542	 
  1929	-100.4556	 0.3230	-22.8862	93.0510	 4.4492	46.4113	 
  1930	-99.9716	 0.2545	42.8066	-2.7626	 4.6944	46.1333	 
  1931	-99.4451	 0.2832	42.8066	-2.7626	 5.2838	45.9907	 
  1932	-98.9882	 0.4135	16.4029	 6.9872	 5.5807	45.9560	 
  1933	-98.7249	 0.4279	27.7685	19.1706	 5.9722	45.6240	 
  1934	-98.5817	 0.2986	45.9187	 3.7724	 6.0410	45.5236	 
  1935	-98.6591	 0.2522	54.7821	-20.2289	 5.9893	45.2803	 
  1936	-98.6900	 0.3770	18.3334	22.6546	 6.0065	44.9367	 
  1937	-98.5778	 0.3726	15.0205	 0.6381	 5.8602	44.9907	 
  1938	-98.6474	 0.4742	33.3715	 0.7214	 5.8946	44.9405	 
  1939	-98.5081	 0.2710	30.8920	-5.2225	 5.9591	44.7667	 
  1940	-98.5429	 0.3218	-15.1153	71.4398	 5.8386	44.6238	 
  1941	-98.6204	 0.2754	27.7685	19.1706	 5.6880	44.6044	 
  1942	-98.8488	 0.2103	59.9783	-27.8077	 5.5933	44.2646	 
  1943	-98.9302	 0.0899	95.7678	-29.1784	 5.2878	44.1525	 
  1944	-99.0773	 0.1451	54.7821	-20.2289	 5.3694	43.6351	 
  1945	-99.1586	 0.0248	-1.7978	52.0160	 5.1972	43.2488	 
  1946	-99.0463	 0.0203	18.5461	32.6217	 5.2488	42.8550	 
  1947	-98.5507	 0.1738	 9.3484	17.2762	 5.9629	42.2914	 
  1948	-97.8383	 0.1705	101.4458	-37.4598	 6.3544	41.9594	 
  1949	-97.4976	 0.2312	50.5432	-24.3237	 6.8061	41.3803	 
  1950	-97.4550	 0.3284	51.8251	20.3331	 6.9953	40.7857	 
  1951	-97.3775	 0.3748	24.5946	 3.9623	 6.8790	40.0790	 
  1952	-97.1608	 0.2179	45.9187	 3.7724	 6.9133	39.3916	 
  1953	-97.1298	 0.0931	114.3784	-21.5069	 6.7755	38.9552	 
  1954	-97.1337	 0.0192	72.9461	38.9224	 6.9647	38.3605	 
  1955	-97.2073	 0.0468	101.4458	-37.4598	 6.9776	37.9435	 
  1956	-97.2886	-0.0736	18.5461	32.6217	 6.8054	37.5573	 
  1957	-97.4861	-0.2636	82.3831	-24.2360	 6.5858	37.0011	 
  1958	-97.6758	-0.3055	82.3831	-24.2360	 6.4094	36.5415	 
  1959	-97.7959	-0.4491	50.5432	-24.3237	 6.1038	36.4294	 
  1960	-97.9120	-0.5187	37.9351	15.4165	 5.7510	36.1474	 
  1961	-98.1057	-0.6346	49.1041	-11.9475	 5.3938	35.7920	 
  1962	-98.2567	-0.6534	35.7521	 7.5264	 4.8301	35.7378	 
  1963	-98.1057	-0.6346	65.2098	15.3907	 4.6064	35.7454	 
  1964	-97.6527	-0.5783	64.9486	-23.9830	 4.9334	35.5872	 
  1965	-97.1261	-0.5496	37.9351	15.4165	 5.2216	35.4058	 
  1966	-96.6344	-0.4701	61.0475	 6.8821	 5.4196	35.5951	 
  1967	-96.4446	-0.4282	70.3149	-19.7797	 5.2862	35.8692	 
  1968	-96.5182	-0.4006	-6.3150	31.7562	 5.1787	35.9464	 
  1969	-96.4873	-0.5254	59.2706	-15.7015	 4.7829	36.2050	 
  1970	-96.2975	-0.4834	36.5701	-13.5040	 4.8646	36.3248	 
  1971	-96.1465	-0.4646	70.3149	-19.7797	 4.5162	36.7533	 
  1972	-95.9259	-0.5475	 9.5565	25.8956	 4.1334	37.2320	 
  1973	-95.8871	-0.5243	52.9732	-6.5167	 3.5956	37.6180	 
  1974	-95.8136	-0.5519	20.6985	-7.6433	 2.9976	38.2511	 
  1975	-95.8523	-0.5751	37.9351	15.4165	 2.4514	39.1275	 
  1976	-95.7904	-0.8247	33.3715	 0.7214	 1.4662	40.1660	 
  1977	-95.2485	-1.2168	17.8040	44.7780	 0.0294	41.7836	 
  1978	-93.2936	-2.5543	-7.8577	42.3715	-2.4355	44.3431	 
  1979	-91.3657	-3.6930	 1.4090	12.5238	-4.7066	48.2928	 
  1980	-89.9295	-4.1945	-22.8516	47.9081	-5.9323	51.5941	 
  1981	-88.5899	-4.3956	 7.7064	 3.3389	-5.6559	56.9272	 
  1982	-87.1690	-4.4762	16.4888	-16.9590	-0.2334	62.7215	 
  1983	-85.5119	-4.3438	-5.4662	15.0625	23.0961	64.8646	 
  1984	-84.1489	-4.1009	-32.9104	 6.4922	47.0003	56.4501	 
  1985	-83.7154	-4.4145	13.1265	-49.9774	55.5568	48.1928	 
  1986	-83.3244	-4.8254	-9.7576	-16.6007	65.7019	44.7091	 
  1987	-82.1396	-4.4025	 1.1511	-32.5111	71.4623	39.7332	 
  1988	-80.7921	-3.7388	-1.2822	-44.6569	71.7151	33.8675	 
  1989	-79.4638	-2.7283	-3.0940	-46.8741	70.7162	30.2256	 
  1990	-77.3882	-1.0552	 3.9140	-52.2356	68.8354	27.4716	 
  1991	-75.7307	 0.5108	-9.0319	-47.4553	67.6173	25.1851	 
  1992	-74.3211	 1.6417	-18.2508	-38.3911	68.5596	25.3244	 
  1993	-72.9503	 2.7493	-48.6907	-6.4225	69.2179	25.0813	 
  1994	-73.0587	 2.8278	-19.9061	-31.5951	69.7342	24.9656	 
  1995	-73.4807	 2.6467	-22.0345	-23.9497	69.8073	24.9386	 
